[DEFAULT]

version = diffpy.pdfgetx-2.2.1

# input and output specifications
dataformat = QA
inputfile = bf9_acc_r01.xyd
backgroundfiles = emptycap.xyd
outputtype = sq

# PDF calculation setup
mode = xray
composition = AlOOH
bgscales = 0.5
rpoly = 1.13
qmaxinst = 20.396
qmin = 0.406
qmax = 15
rmin = 0
rmax = 300
rstep = 0.01

# End of config --------------------------------------------------------------

#### start data
#S 1
#L Q(Å$^{-1}$)  S(a.u.)
0.408095 1.53685
0.41044 1.52866
0.412785 1.5206
0.415131 1.51103
0.417476 1.49882
0.419821 1.49316
0.422167 1.48759
0.424512 1.48135
0.426857 1.47461
0.429203 1.4686
0.431548 1.4633
0.433894 1.4556
0.436239 1.44529
0.438584 1.43486
0.44093 1.43137
0.443275 1.42279
0.44562 1.41984
0.447966 1.41887
0.450311 1.41582
0.452657 1.40701
0.455002 1.3991
0.457347 1.39308
0.459693 1.38784
0.462038 1.38186
0.464383 1.37283
0.466729 1.36822
0.469074 1.36508
0.47142 1.36155
0.473765 1.35608
0.47611 1.34742
0.478456 1.34324
0.480801 1.33965
0.483146 1.33458
0.485492 1.32733
0.487837 1.32086
0.490182 1.31689
0.492528 1.31405
0.494873 1.30972
0.497219 1.30326
0.499564 1.30323
0.501909 1.30144
0.504255 1.29722
0.5066 1.29233
0.508945 1.28839
0.511291 1.28379
0.513636 1.28015
0.515982 1.27745
0.518327 1.2762
0.520672 1.27589
0.523018 1.26953
0.525363 1.26323
0.527708 1.26068
0.530054 1.25873
0.532399 1.25356
0.534745 1.25198
0.53709 1.2484
0.539435 1.24609
0.541781 1.24343
0.544126 1.23813
0.546471 1.23733
0.548817 1.23419
0.551162 1.22997
0.553507 1.22841
0.555853 1.23276
0.558198 1.22721
0.560544 1.2223
0.562889 1.22045
0.565234 1.21948
0.56758 1.21551
0.569925 1.21434
0.57227 1.21504
0.574616 1.21303
0.576961 1.20903
0.579307 1.20655
0.581652 1.20431
0.583997 1.20086
0.586343 1.19902
0.588688 1.19819
0.591033 1.19561
0.593379 1.19522
0.595724 1.19366
0.59807 1.1927
0.600415 1.19204
0.60276 1.18978
0.605106 1.18727
0.607451 1.1853
0.609796 1.183
0.612142 1.18139
0.614487 1.18334
0.616832 1.18487
0.619178 1.18213
0.621523 1.17893
0.623869 1.17639
0.626214 1.17274
0.628559 1.17224
0.630905 1.17263
0.63325 1.17096
0.635595 1.16801
0.637941 1.16947
0.640286 1.16706
0.642632 1.16574
0.644977 1.16702
0.647322 1.16912
0.649668 1.16528
0.652013 1.16713
0.654358 1.16776
0.656704 1.16784
0.659049 1.16736
0.661395 1.16451
0.66374 1.1633
0.666085 1.1627
0.668431 1.16163
0.670776 1.16029
0.673121 1.1616
0.675467 1.16229
0.677812 1.16411
0.680158 1.16479
0.682503 1.16361
0.684848 1.16417
0.687194 1.16534
0.689539 1.16831
0.691884 1.17028
0.69423 1.1695
0.696575 1.16799
0.69892 1.16918
0.701266 1.16817
0.703611 1.16728
0.705957 1.16789
0.708302 1.16516
0.710647 1.16535
0.712993 1.169
0.715338 1.17355
0.717683 1.17598
0.720029 1.17323
0.722374 1.17504
0.72472 1.17634
0.727065 1.1765
0.72941 1.17606
0.731756 1.17716
0.734101 1.17922
0.736446 1.18182
0.738792 1.185
0.741137 1.18822
0.743483 1.18758
0.745828 1.18857
0.748173 1.19364
0.750519 1.19776
0.752864 1.19581
0.755209 1.19521
0.757555 1.19787
0.7599 1.20211
0.762245 1.20421
0.764591 1.20169
0.766936 1.20715
0.769282 1.20972
0.771627 1.21187
0.773972 1.21358
0.776318 1.21453
0.778663 1.21924
0.781008 1.22218
0.783354 1.22396
0.785699 1.22606
0.788045 1.22985
0.79039 1.22948
0.792735 1.23227
0.795081 1.23763
0.797426 1.24293
0.799771 1.24498
0.802117 1.24909
0.804462 1.25254
0.806808 1.25474
0.809153 1.25646
0.811498 1.25935
0.813844 1.26716
0.816189 1.27219
0.818534 1.27403
0.82088 1.27635
0.823225 1.28511
0.82557 1.2877
0.827916 1.29154
0.830261 1.29615
0.832607 1.30192
0.834952 1.30972
0.837297 1.31356
0.839643 1.31306
0.841988 1.31619
0.844333 1.32523
0.846679 1.33754
0.849024 1.33562
0.85137 1.33841
0.853715 1.34342
0.85606 1.34883
0.858406 1.35341
0.860751 1.35795
0.863096 1.36755
0.865442 1.37793
0.867787 1.38458
0.870133 1.38239
0.872478 1.38792
0.874823 1.39276
0.877169 1.39935
0.879514 1.40685
0.881859 1.40986
0.884205 1.41726
0.88655 1.42232
0.888896 1.42569
0.891241 1.42977
0.893586 1.4396
0.895932 1.44452
0.898277 1.45038
0.900622 1.45587
0.902968 1.46016
0.905313 1.46364
0.907658 1.47045
0.910004 1.47984
0.912349 1.48577
0.914695 1.48602
0.91704 1.48585
0.919385 1.49194
0.921731 1.49607
0.924076 1.49915
0.926421 1.50154
0.928767 1.50089
0.931112 1.50298
0.933458 1.5125
0.935803 1.52138
0.938148 1.52338
0.940494 1.51897
0.942839 1.52156
0.945184 1.52251
0.94753 1.5222
0.949875 1.52244
0.952221 1.52648
0.954566 1.52882
0.956911 1.52729
0.959257 1.52374
0.961602 1.52033
0.963947 1.51854
0.966293 1.5162
0.968638 1.51561
0.970983 1.51582
0.973329 1.51524
0.975674 1.51167
0.97802 1.5017
0.980365 1.49276
0.98271 1.48729
0.985056 1.48568
0.987401 1.48395
0.989746 1.47223
0.992092 1.46488
0.994437 1.46154
0.996783 1.458
0.999128 1.44621
1.00147 1.43628
1.00382 1.42485
1.00616 1.41458
1.00851 1.40797
1.01085 1.39872
1.0132 1.38732
1.01555 1.3767
1.01789 1.36586
1.02024 1.35402
1.02258 1.34898
1.02493 1.33425
1.02727 1.31815
1.02962 1.30535
1.03196 1.29752
1.03431 1.28104
1.03665 1.27487
1.039 1.265
1.04134 1.25027
1.04369 1.23464
1.04604 1.22744
1.04838 1.21562
1.05073 1.2045
1.05307 1.19356
1.05542 1.18118
1.05776 1.1777
1.06011 1.16461
1.06245 1.15441
1.0648 1.14879
1.06714 1.14435
1.06949 1.13297
1.07183 1.12476
1.07418 1.11573
1.07653 1.10645
1.07887 1.09926
1.08122 1.08863
1.08356 1.08371
1.08591 1.07915
1.08825 1.07308
1.0906 1.06551
1.09294 1.05742
1.09529 1.05086
1.09763 1.04426
1.09998 1.03876
1.10232 1.03685
1.10467 1.03139
1.10701 1.02577
1.10936 1.02268
1.11171 1.01957
1.11405 1.01056
1.1164 1.00231
1.11874 0.9987
1.12109 0.994178
1.12343 0.988441
1.12578 0.985066
1.12812 0.982837
1.13047 0.978927
1.13281 0.97564
1.13516 0.972533
1.1375 0.966864
1.13985 0.961179
1.1422 0.957688
1.14454 0.954828
1.14689 0.951648
1.14923 0.94774
1.15158 0.946292
1.15392 0.943587
1.15627 0.941998
1.15861 0.940612
1.16096 0.934994
1.1633 0.930564
1.16565 0.926234
1.16799 0.924287
1.17034 0.923593
1.17269 0.91893
1.17503 0.915947
1.17738 0.913547
1.17972 0.91312
1.18207 0.912895
1.18441 0.906836
1.18676 0.904338
1.1891 0.90125
1.19145 0.900849
1.19379 0.901613
1.19614 0.894775
1.19848 0.89203
1.20083 0.891999
1.20318 0.890656
1.20552 0.886259
1.20787 0.880572
1.21021 0.879877
1.21256 0.878107
1.2149 0.876209
1.21725 0.87509
1.21959 0.875138
1.22194 0.874719
1.22428 0.872734
1.22663 0.870561
1.22897 0.869072
1.23132 0.867995
1.23366 0.866442
1.23601 0.86507
1.23836 0.862873
1.2407 0.859599
1.24305 0.856708
1.24539 0.853433
1.24774 0.852279
1.25008 0.851631
1.25243 0.85044
1.25477 0.849623
1.25712 0.85017
1.25946 0.847734
1.26181 0.844705
1.26415 0.843087
1.2665 0.842597
1.26885 0.842353
1.27119 0.842508
1.27354 0.842533
1.27588 0.84222
1.27823 0.842402
1.28057 0.840548
1.28292 0.837878
1.28526 0.836415
1.28761 0.836595
1.28995 0.834016
1.2923 0.833643
1.29464 0.832733
1.29699 0.831453
1.29934 0.829969
1.30168 0.827166
1.30403 0.824005
1.30637 0.822877
1.30872 0.823984
1.31106 0.826136
1.31341 0.824582
1.31575 0.826116
1.3181 0.825313
1.32044 0.824378
1.32279 0.824741
1.32513 0.820251
1.32748 0.815514
1.32983 0.816243
1.33217 0.817673
1.33452 0.815376
1.33686 0.813755
1.33921 0.812901
1.34155 0.809513
1.3439 0.807365
1.34624 0.809534
1.34859 0.810346
1.35093 0.809852
1.35328 0.808029
1.35562 0.80682
1.35797 0.80755
1.36032 0.806675
1.36266 0.806408
1.36501 0.807214
1.36735 0.807435
1.3697 0.805833
1.37204 0.805808
1.37439 0.803252
1.37673 0.799851
1.37908 0.79762
1.38142 0.798225
1.38377 0.801126
1.38611 0.800498
1.38846 0.798922
1.3908 0.798062
1.39315 0.79852
1.3955 0.795623
1.39784 0.793573
1.40019 0.793526
1.40253 0.795014
1.40488 0.796498
1.40722 0.792813
1.40957 0.791213
1.41191 0.788623
1.41426 0.787665
1.4166 0.791205
1.41895 0.792116
1.42129 0.789288
1.42364 0.788422
1.42599 0.790402
1.42833 0.793758
1.43068 0.791062
1.43302 0.789808
1.43537 0.786009
1.43771 0.783577
1.44006 0.787151
1.4424 0.785032
1.44475 0.786887
1.44709 0.78702
1.44944 0.785147
1.45178 0.78313
1.45413 0.784473
1.45648 0.785276
1.45882 0.784413
1.46117 0.782119
1.46351 0.779376
1.46586 0.778649
1.4682 0.781003
1.47055 0.779823
1.47289 0.777168
1.47524 0.778026
1.47758 0.780833
1.47993 0.779572
1.48227 0.779231
1.48462 0.779829
1.48697 0.779586
1.48931 0.779785
1.49166 0.775526
1.494 0.774352
1.49635 0.775807
1.49869 0.776238
1.50104 0.776931
1.50338 0.776017
1.50573 0.775043
1.50807 0.774321
1.51042 0.773639
1.51276 0.773104
1.51511 0.769893
1.51745 0.770029
1.5198 0.77222
1.52215 0.77196
1.52449 0.77069
1.52684 0.770966
1.52918 0.772267
1.53153 0.772849
1.53387 0.770864
1.53622 0.773336
1.53856 0.773761
1.54091 0.773234
1.54325 0.7722
1.5456 0.770857
1.54794 0.769759
1.55029 0.769637
1.55264 0.770855
1.55498 0.771558
1.55733 0.769035
1.55967 0.768052
1.56202 0.769068
1.56436 0.767245
1.56671 0.764694
1.56905 0.766946
1.5714 0.768171
1.57374 0.768059
1.57609 0.766535
1.57843 0.766058
1.58078 0.769964
1.58313 0.767534
1.58547 0.767143
1.58782 0.765877
1.59016 0.763218
1.59251 0.760553
1.59485 0.76925
1.5972 0.769216
1.59954 0.76503
1.60189 0.761066
1.60423 0.761517
1.60658 0.762337
1.60892 0.761167
1.61127 0.760951
1.61362 0.761886
1.61596 0.762394
1.61831 0.760247
1.62065 0.762173
1.623 0.763018
1.62534 0.761628
1.62769 0.759585
1.63003 0.76275
1.63238 0.762544
1.63472 0.763274
1.63707 0.765014
1.63941 0.765134
1.64176 0.764001
1.6441 0.767985
1.64645 0.768845
1.6488 0.765827
1.65114 0.763252
1.65349 0.764607
1.65583 0.763874
1.65818 0.762255
1.66052 0.760577
1.66287 0.759635
1.66521 0.765256
1.66756 0.764143
1.6699 0.763344
1.67225 0.764911
1.67459 0.767419
1.67694 0.7673
1.67929 0.767947
1.68163 0.768238
1.68398 0.767682
1.68632 0.766398
1.68867 0.769912
1.69101 0.770775
1.69336 0.77017
1.6957 0.768326
1.69805 0.765067
1.70039 0.767359
1.70274 0.771292
1.70508 0.774315
1.70743 0.775699
1.70978 0.775954
1.71212 0.772858
1.71447 0.773986
1.71681 0.775072
1.71916 0.774808
1.7215 0.773957
1.72385 0.772612
1.72619 0.775979
1.72854 0.778308
1.73088 0.778632
1.73323 0.779325
1.73557 0.778712
1.73792 0.77872
1.74027 0.778435
1.74261 0.777421
1.74496 0.775733
1.7473 0.778757
1.74965 0.778393
1.75199 0.778849
1.75434 0.780671
1.75668 0.78183
1.75903 0.782826
1.76137 0.785802
1.76372 0.787075
1.76606 0.786658
1.76841 0.78709
1.77075 0.784897
1.7731 0.788614
1.77545 0.793106
1.77779 0.795814
1.78014 0.796143
1.78248 0.800465
1.78483 0.801089
1.78717 0.801773
1.78952 0.802902
1.79186 0.802705
1.79421 0.806141
1.79655 0.809266
1.7989 0.810987
1.80124 0.811582
1.80359 0.81248
1.80594 0.819369
1.80828 0.824153
1.81063 0.82645
1.81297 0.827139
1.81532 0.828115
1.81766 0.832641
1.82001 0.838928
1.82235 0.844857
1.8247 0.849716
1.82704 0.853617
1.82939 0.853446
1.83173 0.858995
1.83408 0.867758
1.83643 0.87605
1.83877 0.879527
1.84112 0.882146
1.84346 0.888191
1.84581 0.894007
1.84815 0.899337
1.8505 0.905966
1.85284 0.911984
1.85519 0.919632
1.85753 0.928333
1.85988 0.936341
1.86222 0.941284
1.86457 0.94505
1.86692 0.949025
1.86926 0.955644
1.87161 0.965943
1.87395 0.979818
1.8763 0.993156
1.87864 1.00526
1.88099 1.01684
1.88333 1.02798
1.88568 1.03847
1.88802 1.0482
1.89037 1.06195
1.89271 1.07541
1.89506 1.08634
1.8974 1.09396
1.89975 1.10315
1.9021 1.11698
1.90444 1.13174
1.90679 1.14729
1.90913 1.16506
1.91148 1.17918
1.91382 1.19118
1.91617 1.20352
1.91851 1.21886
1.92086 1.23879
1.9232 1.24609
1.92555 1.25492
1.92789 1.27084
1.93024 1.28977
1.93259 1.30324
1.93493 1.31625
1.93728 1.3314
1.93962 1.34478
1.94197 1.35341
1.94431 1.35679
1.94666 1.38175
1.949 1.39272
1.95135 1.39615
1.95369 1.40106
1.95604 1.4163
1.95838 1.42697
1.96073 1.43475
1.96308 1.43657
1.96542 1.43503
1.96777 1.43504
1.97011 1.43593
1.97246 1.44522
1.9748 1.44827
1.97715 1.44179
1.97949 1.42827
1.98184 1.41773
1.98418 1.41637
1.98653 1.4184
1.98887 1.41051
1.99122 1.38151
1.99357 1.3718
1.99591 1.36477
1.99826 1.34268
2.0006 1.31754
2.00295 1.30827
2.00529 1.28875
2.00764 1.27259
2.00998 1.26044
2.01233 1.24847
2.01467 1.23219
2.01702 1.21615
2.01936 1.18586
2.02171 1.16491
2.02405 1.14916
2.0264 1.12809
2.02875 1.11564
2.03109 1.10775
2.03344 1.09023
2.03578 1.06922
2.03813 1.05567
2.04047 1.04794
2.04282 1.02911
2.04516 1.01551
2.04751 1.00466
2.04985 0.990492
2.0522 0.980257
2.05454 0.972421
2.05689 0.958128
2.05924 0.941711
2.06158 0.929289
2.06393 0.915497
2.06627 0.906489
2.06862 0.901141
2.07096 0.893293
2.07331 0.878672
2.07565 0.869904
2.078 0.863333
2.08034 0.853677
2.08269 0.84585
2.08503 0.843533
2.08738 0.832972
2.08973 0.831628
2.09207 0.82633
2.09442 0.818868
2.09676 0.813627
2.09911 0.812363
2.10145 0.809507
2.1038 0.804644
2.10614 0.799598
2.10849 0.795297
2.11083 0.787041
2.11318 0.785571
2.11552 0.785582
2.11787 0.782549
2.12022 0.774891
2.12256 0.771092
2.12491 0.768853
2.12725 0.767352
2.1296 0.764971
2.13194 0.761076
2.13429 0.758652
2.13663 0.756697
2.13898 0.754401
2.14132 0.753347
2.14367 0.753316
2.14601 0.747534
2.14836 0.743092
2.1507 0.74211
2.15305 0.742847
2.1554 0.743414
2.15774 0.742959
2.16009 0.736572
2.16243 0.735029
2.16478 0.734974
2.16712 0.733387
2.16947 0.731905
2.17181 0.731675
2.17416 0.733323
2.1765 0.733661
2.17885 0.731651
2.18119 0.73178
2.18354 0.733087
2.18589 0.732486
2.18823 0.731768
2.19058 0.731562
2.19292 0.729332
2.19527 0.725796
2.19761 0.723456
2.19996 0.722411
2.2023 0.722227
2.20465 0.721846
2.20699 0.722676
2.20934 0.72237
2.21168 0.724215
2.21403 0.727386
2.21638 0.723837
2.21872 0.722681
2.22107 0.723105
2.22341 0.721104
2.22576 0.717195
2.2281 0.718651
2.23045 0.718119
2.23279 0.717383
2.23514 0.716745
2.23748 0.716
2.23983 0.714334
2.24217 0.713174
2.24452 0.710367
2.24687 0.709636
2.24921 0.712186
2.25156 0.71624
2.2539 0.713545
2.25625 0.711432
2.25859 0.710993
2.26094 0.71091
2.26328 0.707497
2.26563 0.703187
2.26797 0.701853
2.27032 0.702612
2.27266 0.704292
2.27501 0.705468
2.27735 0.705982
2.2797 0.707338
2.28205 0.707001
2.28439 0.705908
2.28674 0.707518
2.28908 0.705373
2.29143 0.704023
2.29377 0.703412
2.29612 0.701718
2.29846 0.696397
2.30081 0.697686
2.30315 0.701251
2.3055 0.703078
2.30784 0.701609
2.31019 0.697289
2.31254 0.698679
2.31488 0.698744
2.31723 0.699222
2.31957 0.700909
2.32192 0.703963
2.32426 0.706836
2.32661 0.703103
2.32895 0.703581
2.3313 0.706845
2.33364 0.706433
2.33599 0.7034
2.33833 0.701047
2.34068 0.70168
2.34303 0.704302
2.34537 0.706565
2.34772 0.706883
2.35006 0.710796
2.35241 0.709495
2.35475 0.705361
2.3571 0.70428
2.35944 0.70891
2.36179 0.707378
2.36413 0.70583
2.36648 0.704646
2.36882 0.703244
2.37117 0.705125
2.37352 0.704308
2.37586 0.70505
2.37821 0.707512
2.38055 0.709594
2.3829 0.703061
2.38524 0.705584
2.38759 0.708342
2.38993 0.709708
2.39228 0.709472
2.39462 0.706982
2.39697 0.707679
2.39931 0.712298
2.40166 0.715124
2.404 0.712259
2.40635 0.709605
2.4087 0.710031
2.41104 0.709209
2.41339 0.706741
2.41573 0.703836
2.41808 0.704734
2.42042 0.704309
2.42277 0.708212
2.42511 0.712517
2.42746 0.713794
2.4298 0.71227
2.43215 0.710045
2.43449 0.709647
2.43684 0.710816
2.43919 0.712452
2.44153 0.712267
2.44388 0.716195
2.44622 0.715298
2.44857 0.71823
2.45091 0.724944
2.45326 0.718415
2.4556 0.71861
2.45795 0.717949
2.46029 0.720225
2.46264 0.72558
2.46498 0.728242
2.46733 0.72699
2.46968 0.72758
2.47202 0.728686
2.47437 0.731137
2.47671 0.738596
2.47906 0.734457
2.4814 0.737969
2.48375 0.741508
2.48609 0.742476
2.48844 0.743601
2.49078 0.742669
2.49313 0.744288
2.49547 0.747928
2.49782 0.754126
2.50017 0.763908
2.50251 0.763239
2.50486 0.765074
2.5072 0.767604
2.50955 0.770661
2.51189 0.774906
2.51424 0.774709
2.51658 0.782403
2.51893 0.786773
2.52127 0.789189
2.52362 0.797193
2.52596 0.802553
2.52831 0.808584
2.53066 0.813973
2.533 0.819748
2.53535 0.827472
2.53769 0.832771
2.54004 0.838827
2.54238 0.846389
2.54473 0.855305
2.54707 0.865053
2.54942 0.875519
2.55176 0.880727
2.55411 0.88601
2.55645 0.892909
2.5588 0.902083
2.56114 0.91615
2.56349 0.92583
2.56584 0.942036
2.56818 0.957077
2.57053 0.963973
2.57287 0.980952
2.57522 0.989896
2.57756 0.996781
2.57991 1.00764
2.58225 1.02519
2.5846 1.04034
2.58694 1.04965
2.58929 1.06242
2.59163 1.07987
2.59398 1.10018
2.59633 1.11672
2.59867 1.12939
2.60102 1.14196
2.60336 1.15778
2.60571 1.17644
2.60805 1.18899
2.6104 1.20173
2.61274 1.21835
2.61509 1.23576
2.61743 1.25337
2.61978 1.27641
2.62212 1.29204
2.62447 1.31286
2.62682 1.33684
2.62916 1.361
2.63151 1.38224
2.63385 1.40012
2.6362 1.4162
2.63854 1.42948
2.64089 1.44041
2.64323 1.45133
2.64558 1.46841
2.64792 1.48389
2.65027 1.49614
2.65261 1.50693
2.65496 1.52104
2.65731 1.53579
2.65965 1.54429
2.662 1.54464
2.66434 1.54211
2.66669 1.54663
2.66903 1.54378
2.67138 1.54355
2.67372 1.5385
2.67607 1.53185
2.67841 1.53208
2.68076 1.52882
2.6831 1.51995
2.68545 1.50245
2.68779 1.48576
2.69014 1.48181
2.69249 1.46657
2.69483 1.44646
2.69718 1.43265
2.69952 1.42257
2.70187 1.4085
2.70421 1.3824
2.70656 1.36693
2.7089 1.35014
2.71125 1.3297
2.71359 1.30754
2.71594 1.2936
2.71828 1.28003
2.72063 1.26336
2.72298 1.24279
2.72532 1.22045
2.72767 1.20713
2.73001 1.18397
2.73236 1.16405
2.7347 1.14895
2.73705 1.13754
2.73939 1.12653
2.74174 1.11384
2.74408 1.09521
2.74643 1.07425
2.74877 1.05611
2.75112 1.04749
2.75347 1.03994
2.75581 1.03455
2.75816 1.02934
2.7605 1.02016
2.76285 0.999182
2.76519 0.988581
2.76754 0.980639
2.76988 0.970972
2.77223 0.959755
2.77457 0.952969
2.77692 0.943978
2.77926 0.936211
2.78161 0.926988
2.78396 0.915568
2.7863 0.903369
2.78865 0.899644
2.79099 0.892487
2.79334 0.881524
2.79568 0.870448
2.79803 0.865815
2.80037 0.866483
2.80272 0.857475
2.80506 0.852548
2.80741 0.850013
2.80975 0.84082
2.8121 0.83998
2.81444 0.834096
2.81679 0.827591
2.81914 0.820863
2.82148 0.813302
2.82383 0.810507
2.82617 0.808681
2.82852 0.805207
2.83086 0.79954
2.83321 0.792772
2.83555 0.791317
2.8379 0.786298
2.84024 0.783869
2.84259 0.781471
2.84493 0.77652
2.84728 0.775271
2.84963 0.773565
2.85197 0.768499
2.85432 0.763318
2.85666 0.761197
2.85901 0.761958
2.86135 0.759973
2.8637 0.759099
2.86604 0.758516
2.86839 0.756239
2.87073 0.74871
2.87308 0.74363
2.87542 0.742451
2.87777 0.741749
2.88012 0.740111
2.88246 0.740115
2.88481 0.744998
2.88715 0.740655
2.8895 0.736926
2.89184 0.737584
2.89419 0.737818
2.89653 0.735428
2.89888 0.732745
2.90122 0.735457
2.90357 0.74076
2.90591 0.738648
2.90826 0.743799
2.91061 0.737533
2.91295 0.734643
2.9153 0.735702
2.91764 0.732709
2.91999 0.736365
2.92233 0.735213
2.92468 0.730817
2.92702 0.72657
2.92937 0.726004
2.93171 0.724301
2.93406 0.725952
2.9364 0.726902
2.93875 0.726014
2.94109 0.723937
2.94344 0.725915
2.94579 0.72583
2.94813 0.724965
2.95048 0.723946
2.95282 0.723938
2.95517 0.729159
2.95751 0.724674
2.95986 0.720518
2.9622 0.719278
2.96455 0.721817
2.96689 0.728013
2.96924 0.728554
2.97158 0.725857
2.97393 0.72349
2.97628 0.723642
2.97862 0.725372
2.98097 0.730997
2.98331 0.729248
2.98566 0.725533
2.988 0.72422
2.99035 0.72646
2.99269 0.731621
2.99504 0.729876
2.99738 0.729414
2.99973 0.731587
3.00207 0.729967
3.00442 0.736108
3.00677 0.734745
3.00911 0.733038
3.01146 0.732723
3.0138 0.731514
3.01615 0.734231
3.01849 0.736745
3.02084 0.738347
3.02318 0.739772
3.02553 0.742038
3.02787 0.740109
3.03022 0.744522
3.03256 0.744903
3.03491 0.742577
3.03726 0.743182
3.0396 0.750569
3.04195 0.756779
3.04429 0.759725
3.04664 0.761302
3.04898 0.763152
3.05133 0.76055
3.05367 0.764121
3.05602 0.766739
3.05836 0.767387
3.06071 0.768391
3.06305 0.779044
3.0654 0.779933
3.06774 0.779678
3.07009 0.779643
3.07244 0.78098
3.07478 0.78609
3.07713 0.794659
3.07947 0.801726
3.08182 0.805734
3.08416 0.807062
3.08651 0.808457
3.08885 0.810081
3.0912 0.81765
3.09354 0.822325
3.09589 0.824331
3.09823 0.832788
3.10058 0.836495
3.10293 0.836639
3.10527 0.840992
3.10762 0.849931
3.10996 0.858069
3.11231 0.85104
3.11465 0.855613
3.117 0.867513
3.11934 0.875768
3.12169 0.8701
3.12403 0.874573
3.12638 0.877188
3.12872 0.886416
3.13107 0.893529
3.13342 0.889491
3.13576 0.89235
3.13811 0.901388
3.14045 0.907744
3.1428 0.907662
3.14514 0.903126
3.14749 0.911572
3.14983 0.91611
3.15218 0.918158
3.15452 0.919831
3.15687 0.922508
3.15921 0.925661
3.16156 0.925659
3.16391 0.92481
3.16625 0.923094
