[DEFAULT]

version = diffpy.pdfgetx-2.2.1

# input and output specifications
dataformat = QA
inputfile = bf1_acc_r01.xyd
backgroundfiles = emptycap.xyd
outputtype = sq

# PDF calculation setup
mode = xray
composition = AlOOH
bgscales = 0.5
rpoly = 1.13
qmaxinst = 20.396
qmin = 0.406
qmax = 15
rmin = 0
rmax = 300
rstep = 0.01

# End of config --------------------------------------------------------------

#### start data
#S 1
#L Q(Å$^{-1}$)  S(a.u.)
0.408095 1.42538
0.41044 1.42087
0.412785 1.41581
0.415131 1.41098
0.417476 1.40801
0.419821 1.40191
0.422167 1.39725
0.424512 1.39254
0.426857 1.38802
0.429203 1.38661
0.431548 1.38067
0.433894 1.3716
0.436239 1.36545
0.438584 1.36406
0.44093 1.36209
0.443275 1.35628
0.44562 1.3544
0.447966 1.35343
0.450311 1.35059
0.452657 1.34463
0.455002 1.3392
0.457347 1.33659
0.459693 1.33454
0.462038 1.33085
0.464383 1.32386
0.466729 1.3216
0.469074 1.31923
0.47142 1.3169
0.473765 1.31425
0.47611 1.30785
0.478456 1.30833
0.480801 1.30783
0.483146 1.30429
0.485492 1.29821
0.487837 1.29609
0.490182 1.29224
0.492528 1.28995
0.494873 1.28889
0.497219 1.28828
0.499564 1.28811
0.501909 1.28454
0.504255 1.27776
0.5066 1.2717
0.508945 1.26986
0.511291 1.27017
0.513636 1.26795
0.515982 1.26602
0.518327 1.26392
0.520672 1.26093
0.523018 1.25929
0.525363 1.25791
0.527708 1.25395
0.530054 1.24988
0.532399 1.249
0.534745 1.24879
0.53709 1.24506
0.539435 1.24188
0.541781 1.23983
0.544126 1.23843
0.546471 1.23811
0.548817 1.23481
0.551162 1.23007
0.553507 1.22664
0.555853 1.22688
0.558198 1.22216
0.560544 1.22074
0.562889 1.21992
0.565234 1.21957
0.56758 1.22029
0.569925 1.2167
0.57227 1.21437
0.574616 1.21247
0.576961 1.21035
0.579307 1.20749
0.581652 1.20499
0.583997 1.20464
0.586343 1.20505
0.588688 1.20476
0.591033 1.20237
0.593379 1.19991
0.595724 1.19876
0.59807 1.19973
0.600415 1.19947
0.60276 1.19149
0.605106 1.18695
0.607451 1.18708
0.609796 1.18471
0.612142 1.18166
0.614487 1.18803
0.616832 1.18375
0.619178 1.18088
0.621523 1.17859
0.623869 1.17716
0.626214 1.17804
0.628559 1.17355
0.630905 1.17272
0.63325 1.17206
0.635595 1.16992
0.637941 1.16701
0.640286 1.16506
0.642632 1.16405
0.644977 1.1623
0.647322 1.15979
0.649668 1.15901
0.652013 1.1586
0.654358 1.15636
0.656704 1.15507
0.659049 1.15516
0.661395 1.15246
0.66374 1.15083
0.666085 1.15325
0.668431 1.15245
0.670776 1.14632
0.673121 1.14417
0.675467 1.14431
0.677812 1.14453
0.680158 1.14316
0.682503 1.14
0.684848 1.13814
0.687194 1.13657
0.689539 1.13746
0.691884 1.13816
0.69423 1.13608
0.696575 1.12964
0.69892 1.13166
0.701266 1.13239
0.703611 1.13199
0.705957 1.13114
0.708302 1.12784
0.710647 1.12387
0.712993 1.12244
0.715338 1.12292
0.717683 1.12372
0.720029 1.12204
0.722374 1.12136
0.72472 1.12122
0.727065 1.12062
0.72941 1.11849
0.731756 1.11362
0.734101 1.11294
0.736446 1.11076
0.738792 1.10878
0.741137 1.10961
0.743483 1.11222
0.745828 1.10864
0.748173 1.10884
0.750519 1.11003
0.752864 1.10744
0.755209 1.10477
0.757555 1.10499
0.7599 1.10425
0.762245 1.10156
0.764591 1.0976
0.766936 1.09896
0.769282 1.09781
0.771627 1.09499
0.773972 1.09161
0.776318 1.08919
0.778663 1.09156
0.781008 1.0951
0.783354 1.09316
0.785699 1.08871
0.788045 1.08801
0.79039 1.08574
0.792735 1.08641
0.795081 1.08614
0.797426 1.08389
0.799771 1.0803
0.802117 1.0811
0.804462 1.0813
0.806808 1.08116
0.809153 1.08037
0.811498 1.07859
0.813844 1.08128
0.816189 1.08067
0.818534 1.0765
0.82088 1.0721
0.823225 1.0731
0.82557 1.07564
0.827916 1.07441
0.830261 1.0725
0.832607 1.07039
0.834952 1.06684
0.837297 1.06792
0.839643 1.06445
0.841988 1.06213
0.844333 1.06251
0.846679 1.06367
0.849024 1.06114
0.85137 1.06144
0.853715 1.06296
0.85606 1.06358
0.858406 1.06059
0.860751 1.05814
0.863096 1.06029
0.865442 1.05956
0.867787 1.05526
0.870133 1.05439
0.872478 1.05434
0.874823 1.0542
0.877169 1.05362
0.879514 1.05275
0.881859 1.05239
0.884205 1.05136
0.88655 1.04848
0.888896 1.04485
0.891241 1.04243
0.893586 1.04464
0.895932 1.04568
0.898277 1.04568
0.900622 1.04518
0.902968 1.04461
0.905313 1.04425
0.907658 1.04182
0.910004 1.04012
0.912349 1.03856
0.914695 1.03666
0.91704 1.0345
0.919385 1.03603
0.921731 1.03742
0.924076 1.03751
0.926421 1.03601
0.928767 1.03381
0.931112 1.03218
0.933458 1.03381
0.935803 1.03435
0.938148 1.03148
0.940494 1.02934
0.942839 1.02778
0.945184 1.02623
0.94753 1.02405
0.949875 1.02195
0.952221 1.02478
0.954566 1.02588
0.956911 1.0274
0.959257 1.02711
0.961602 1.02386
0.963947 1.0216
0.966293 1.01852
0.968638 1.01798
0.970983 1.02008
0.973329 1.02349
0.975674 1.02358
0.97802 1.01881
0.980365 1.0156
0.98271 1.01349
0.985056 1.01157
0.987401 1.01276
0.989746 1.01465
0.992092 1.01645
0.994437 1.01574
0.996783 1.01157
0.999128 1.0114
1.00147 1.00856
1.00382 1.00682
1.00616 1.00729
1.00851 1.00975
1.01085 1.01013
1.0132 1.00895
1.01555 1.01009
1.01789 1.0104
1.02024 1.00653
1.02258 1.00665
1.02493 1.00368
1.02727 1.00228
1.02962 1.00262
1.03196 1.00354
1.03431 1.0042
1.03665 1.00615
1.039 1.00426
1.04134 1.00113
1.04369 1.00102
1.04604 0.99798
1.04838 0.99762
1.05073 0.998389
1.05307 0.998588
1.05542 0.996444
1.05776 0.990769
1.06011 0.98784
1.06245 0.986427
1.0648 0.987174
1.06714 0.990576
1.06949 0.985925
1.07183 0.985295
1.07418 0.989116
1.07653 0.992311
1.07887 0.987914
1.08122 0.986739
1.08356 0.990954
1.08591 0.992509
1.08825 0.990814
1.0906 0.989292
1.09294 0.989045
1.09529 0.984608
1.09763 0.982118
1.09998 0.982538
1.10232 0.983576
1.10467 0.980952
1.10701 0.980709
1.10936 0.98056
1.11171 0.98011
1.11405 0.980172
1.1164 0.979854
1.11874 0.978744
1.12109 0.976887
1.12343 0.974282
1.12578 0.971016
1.12812 0.97242
1.13047 0.974889
1.13281 0.975196
1.13516 0.974385
1.1375 0.977082
1.13985 0.975523
1.1422 0.974669
1.14454 0.973663
1.14689 0.972985
1.14923 0.974384
1.15158 0.971959
1.15392 0.969294
1.15627 0.970147
1.15861 0.973332
1.16096 0.972387
1.1633 0.969938
1.16565 0.966818
1.16799 0.966009
1.17034 0.966675
1.17269 0.963452
1.17503 0.964783
1.17738 0.964806
1.17972 0.966181
1.18207 0.967445
1.18441 0.961465
1.18676 0.966399
1.1891 0.965968
1.19145 0.964567
1.19379 0.964281
1.19614 0.963226
1.19848 0.96299
1.20083 0.965961
1.20318 0.965325
1.20552 0.960887
1.20787 0.963283
1.21021 0.96413
1.21256 0.964482
1.2149 0.963118
1.21725 0.961232
1.21959 0.964475
1.22194 0.964443
1.22428 0.964698
1.22663 0.965932
1.22897 0.967072
1.23132 0.963875
1.23366 0.962217
1.23601 0.959901
1.23836 0.957716
1.2407 0.956483
1.24305 0.956802
1.24539 0.959031
1.24774 0.962019
1.25008 0.961518
1.25243 0.957247
1.25477 0.958229
1.25712 0.960277
1.25946 0.960671
1.26181 0.961463
1.26415 0.962786
1.2665 0.958865
1.26885 0.955236
1.27119 0.954876
1.27354 0.956343
1.27588 0.957886
1.27823 0.958166
1.28057 0.959343
1.28292 0.959895
1.28526 0.961418
1.28761 0.963987
1.28995 0.962152
1.2923 0.959731
1.29464 0.954863
1.29699 0.951609
1.29934 0.952833
1.30168 0.955666
1.30403 0.955222
1.30637 0.953704
1.30872 0.953596
1.31106 0.955801
1.31341 0.955753
1.31575 0.956532
1.3181 0.9541
1.32044 0.951334
1.32279 0.951526
1.32513 0.955695
1.32748 0.955205
1.32983 0.954226
1.33217 0.952996
1.33452 0.951377
1.33686 0.950312
1.33921 0.954518
1.34155 0.950565
1.3439 0.947689
1.34624 0.954294
1.34859 0.956442
1.35093 0.948852
1.35328 0.946785
1.35562 0.947897
1.35797 0.947534
1.36032 0.947703
1.36266 0.946771
1.36501 0.945216
1.36735 0.943017
1.3697 0.940772
1.37204 0.942824
1.37439 0.94505
1.37673 0.942878
1.37908 0.938687
1.38142 0.936278
1.38377 0.937473
1.38611 0.941085
1.38846 0.94276
1.3908 0.941782
1.39315 0.939045
1.3955 0.938992
1.39784 0.935592
1.40019 0.932414
1.40253 0.9315
1.40488 0.933587
1.40722 0.933833
1.40957 0.929241
1.41191 0.925475
1.41426 0.925617
1.4166 0.930505
1.41895 0.930901
1.42129 0.932475
1.42364 0.930645
1.42599 0.927651
1.42833 0.927672
1.43068 0.932574
1.43302 0.931476
1.43537 0.926873
1.43771 0.922048
1.44006 0.92016
1.4424 0.91968
1.44475 0.919036
1.44709 0.919163
1.44944 0.918763
1.45178 0.916819
1.45413 0.922258
1.45648 0.921536
1.45882 0.918552
1.46117 0.916756
1.46351 0.918624
1.46586 0.917417
1.4682 0.915383
1.47055 0.915092
1.47289 0.915879
1.47524 0.915715
1.47758 0.912432
1.47993 0.90983
1.48227 0.910377
1.48462 0.910726
1.48697 0.906186
1.48931 0.905914
1.49166 0.905302
1.494 0.903403
1.49635 0.90089
1.49869 0.899201
1.50104 0.899713
1.50338 0.898294
1.50573 0.899072
1.50807 0.901171
1.51042 0.901159
1.51276 0.893247
1.51511 0.895485
1.51745 0.897442
1.5198 0.897614
1.52215 0.89829
1.52449 0.896331
1.52684 0.895915
1.52918 0.895178
1.53153 0.895477
1.53387 0.899013
1.53622 0.896134
1.53856 0.898309
1.54091 0.898662
1.54325 0.895775
1.5456 0.891406
1.54794 0.892431
1.55029 0.889095
1.55264 0.891288
1.55498 0.896491
1.55733 0.896026
1.55967 0.894704
1.56202 0.894102
1.56436 0.892881
1.56671 0.893364
1.56905 0.898898
1.5714 0.892507
1.57374 0.890147
1.57609 0.886736
1.57843 0.884255
1.58078 0.888084
1.58313 0.889014
1.58547 0.889888
1.58782 0.888896
1.59016 0.887173
1.59251 0.887536
1.59485 0.889107
1.5972 0.884418
1.59954 0.879395
1.60189 0.878369
1.60423 0.884104
1.60658 0.882666
1.60892 0.88596
1.61127 0.88749
1.61362 0.885736
1.61596 0.882482
1.61831 0.883356
1.62065 0.878731
1.623 0.876159
1.62534 0.875511
1.62769 0.872172
1.63003 0.875067
1.63238 0.877707
1.63472 0.883657
1.63707 0.889831
1.63941 0.888939
1.64176 0.883612
1.6441 0.88378
1.64645 0.881816
1.6488 0.877006
1.65114 0.873382
1.65349 0.876751
1.65583 0.87838
1.65818 0.877164
1.66052 0.875043
1.66287 0.876147
1.66521 0.883308
1.66756 0.884208
1.6699 0.880932
1.67225 0.876886
1.67459 0.876289
1.67694 0.872558
1.67929 0.871434
1.68163 0.875026
1.68398 0.879756
1.68632 0.878304
1.68867 0.87967
1.69101 0.879385
1.69336 0.876603
1.6957 0.873058
1.69805 0.872328
1.70039 0.874326
1.70274 0.878099
1.70508 0.879657
1.70743 0.878265
1.70978 0.875625
1.71212 0.875343
1.71447 0.875245
1.71681 0.872698
1.71916 0.868532
1.7215 0.866219
1.72385 0.871249
1.72619 0.873468
1.72854 0.874298
1.73088 0.873947
1.73323 0.871897
1.73557 0.87112
1.73792 0.875939
1.74027 0.876902
1.74261 0.872632
1.74496 0.867793
1.7473 0.871348
1.74965 0.869104
1.75199 0.866875
1.75434 0.868202
1.75668 0.874695
1.75903 0.875029
1.76137 0.870856
1.76372 0.867761
1.76606 0.86827
1.76841 0.872549
1.77075 0.874283
1.7731 0.871676
1.77545 0.872464
1.77779 0.874515
1.78014 0.869135
1.78248 0.867795
1.78483 0.870161
1.78717 0.871726
1.78952 0.871177
1.79186 0.869413
1.79421 0.866298
1.79655 0.870698
1.7989 0.870467
1.80124 0.866504
1.80359 0.86853
1.80594 0.873017
1.80828 0.873662
1.81063 0.87049
1.81297 0.867366
1.81532 0.870494
1.81766 0.871213
1.82001 0.870291
1.82235 0.868847
1.8247 0.868844
1.82704 0.872508
1.82939 0.872094
1.83173 0.868459
1.83408 0.868592
1.83643 0.871445
1.83877 0.870968
1.84112 0.873239
1.84346 0.871729
1.84581 0.868016
1.84815 0.865262
1.8505 0.867382
1.85284 0.867899
1.85519 0.86808
1.85753 0.868831
1.85988 0.871291
1.86222 0.875977
1.86457 0.86569
1.86692 0.862283
1.86926 0.865426
1.87161 0.871395
1.87395 0.8743
1.8763 0.874143
1.87864 0.876682
1.88099 0.879086
1.88333 0.878772
1.88568 0.873712
1.88802 0.87068
1.89037 0.875847
1.89271 0.878696
1.89506 0.877975
1.8974 0.877589
1.89975 0.877043
1.9021 0.878673
1.90444 0.879374
1.90679 0.881239
1.90913 0.888169
1.91148 0.884493
1.91382 0.88031
1.91617 0.879432
1.91851 0.879694
1.92086 0.876364
1.9232 0.877388
1.92555 0.876188
1.92789 0.875076
1.93024 0.87457
1.93259 0.874427
1.93493 0.876604
1.93728 0.883198
1.93962 0.885478
1.94197 0.884881
1.94431 0.887287
1.94666 0.888361
1.949 0.886349
1.95135 0.884783
1.95369 0.88518
1.95604 0.887767
1.95838 0.888474
1.96073 0.889535
1.96308 0.889175
1.96542 0.886901
1.96777 0.883225
1.97011 0.882848
1.97246 0.886812
1.9748 0.889657
1.97715 0.890485
1.97949 0.89017
1.98184 0.887405
1.98418 0.890541
1.98653 0.890132
1.98887 0.888838
1.99122 0.892849
1.99357 0.894113
1.99591 0.891632
1.99826 0.889607
2.0006 0.89321
2.00295 0.904307
2.00529 0.892
2.00764 0.896659
2.00998 0.901912
2.01233 0.902538
2.01467 0.899309
2.01702 0.91028
2.01936 0.906566
2.02171 0.901162
2.02405 0.896305
2.0264 0.891947
2.02875 0.897123
2.03109 0.900172
2.03344 0.899875
2.03578 0.90011
2.03813 0.905649
2.04047 0.915866
2.04282 0.914698
2.04516 0.912442
2.04751 0.909826
2.04985 0.905876
2.0522 0.90589
2.05454 0.91172
2.05689 0.912329
2.05924 0.91357
2.06158 0.921255
2.06393 0.913588
2.06627 0.90905
2.06862 0.908463
2.07096 0.911342
2.07331 0.916251
2.07565 0.919497
2.078 0.917296
2.08034 0.913289
2.08269 0.915614
2.08503 0.928111
2.08738 0.929287
2.08973 0.922803
2.09207 0.917768
2.09442 0.916402
2.09676 0.919227
2.09911 0.926431
2.10145 0.92059
2.1038 0.922314
2.10614 0.928764
2.10849 0.933316
2.11083 0.932762
2.11318 0.939447
2.11552 0.94114
2.11787 0.937613
2.12022 0.932699
2.12256 0.937072
2.12491 0.934895
2.12725 0.932609
2.1296 0.933011
2.13194 0.937207
2.13429 0.942994
2.13663 0.945538
2.13898 0.946865
2.14132 0.94945
2.14367 0.952728
2.14601 0.946487
2.14836 0.943551
2.1507 0.941711
2.15305 0.94241
2.1554 0.945926
2.15774 0.948394
2.16009 0.950885
2.16243 0.949634
2.16478 0.947544
2.16712 0.948114
2.16947 0.954813
2.17181 0.958744
2.17416 0.965833
2.1765 0.969704
2.17885 0.967043
2.18119 0.963488
2.18354 0.963435
2.18589 0.964504
2.18823 0.968047
2.19058 0.972939
2.19292 0.972458
2.19527 0.968239
2.19761 0.966544
2.19996 0.968631
2.2023 0.971929
2.20465 0.967461
2.20699 0.970804
2.20934 0.974286
2.21168 0.97681
2.21403 0.977242
2.21638 0.97366
2.21872 0.97574
2.22107 0.976122
2.22341 0.974069
2.22576 0.971704
2.2281 0.974966
2.23045 0.977133
2.23279 0.980696
2.23514 0.97962
2.23748 0.974981
2.23983 0.977341
2.24217 0.97893
2.24452 0.976562
2.24687 0.979618
2.24921 0.98753
2.25156 0.988099
2.2539 0.983052
2.25625 0.983699
2.25859 0.983471
2.26094 0.982029
2.26328 0.985471
2.26563 0.987603
2.26797 0.985967
2.27032 0.984096
2.27266 0.982022
2.27501 0.976821
2.27735 0.979799
2.2797 0.987332
2.28205 0.98783
2.28439 0.982268
2.28674 0.981296
2.28908 0.979327
2.29143 0.97916
2.29377 0.977544
2.29612 0.97618
2.29846 0.979784
2.30081 0.981913
2.30315 0.985918
2.3055 0.98434
2.30784 0.979386
2.31019 0.978913
2.31254 0.983593
2.31488 0.985533
2.31723 0.984833
2.31957 0.981298
2.32192 0.975469
2.32426 0.978339
2.32661 0.982868
2.32895 0.984728
2.3313 0.985036
2.33364 0.986578
2.33599 0.982029
2.33833 0.98772
2.34068 0.993977
2.34303 0.994327
2.34537 0.985446
2.34772 0.980195
2.35006 0.982351
2.35241 0.989416
2.35475 0.995732
2.3571 0.9957
2.35944 0.992821
2.36179 0.991382
2.36413 0.989305
2.36648 0.987504
2.36882 0.9885
2.37117 0.999531
2.37352 0.997838
2.37586 0.999339
2.37821 1.00348
2.38055 1.00553
2.3829 1.00021
2.38524 1.00048
2.38759 0.998425
2.38993 0.995969
2.39228 0.995674
2.39462 0.994281
2.39697 0.991755
2.39931 0.994945
2.40166 1.00059
2.404 1.00412
2.40635 1.00265
2.4087 1.0072
2.41104 1.0018
2.41339 0.999838
2.41573 1.00954
2.41808 1.0126
2.42042 1.00976
2.42277 1.01669
2.42511 1.0234
2.42746 1.0226
2.4298 1.02027
2.43215 1.02582
2.43449 1.02939
2.43684 1.02813
2.43919 1.02282
2.44153 1.02014
2.44388 1.02745
2.44622 1.03855
2.44857 1.04702
2.45091 1.04937
2.45326 1.04681
2.4556 1.04371
2.45795 1.04923
2.46029 1.05479
2.46264 1.05576
2.46498 1.05425
2.46733 1.05613
2.46968 1.05722
2.47202 1.05591
2.47437 1.05526
2.47671 1.06387
2.47906 1.05926
2.4814 1.06394
2.48375 1.06715
2.48609 1.06835
2.48844 1.07745
2.49078 1.07589
2.49313 1.08224
2.49547 1.08965
2.49782 1.09353
2.50017 1.09155
2.50251 1.09267
2.50486 1.1005
2.5072 1.10557
2.50955 1.10743
2.51189 1.11158
2.51424 1.11617
2.51658 1.12959
2.51893 1.13523
2.52127 1.1318
2.52362 1.12708
2.52596 1.12985
2.52831 1.12935
2.53066 1.12853
2.533 1.13109
2.53535 1.13934
2.53769 1.13682
2.54004 1.14218
2.54238 1.14516
2.54473 1.14665
2.54707 1.15057
2.54942 1.15117
2.55176 1.15039
2.55411 1.15623
2.55645 1.16659
2.5588 1.17567
2.56114 1.17535
2.56349 1.16868
2.56584 1.17705
2.56818 1.18356
2.57053 1.17252
2.57287 1.1791
2.57522 1.18083
2.57756 1.17459
2.57991 1.16768
2.58225 1.16743
2.5846 1.1735
2.58694 1.17698
2.58929 1.17633
2.59163 1.17585
2.59398 1.17737
2.59633 1.17266
2.59867 1.16722
2.60102 1.1659
2.60336 1.16784
2.60571 1.1698
2.60805 1.16438
2.6104 1.15932
2.61274 1.15992
2.61509 1.16268
2.61743 1.16237
2.61978 1.15171
2.62212 1.15063
2.62447 1.14299
2.62682 1.14059
2.62916 1.14615
2.63151 1.14676
2.63385 1.14657
2.6362 1.14599
2.63854 1.14521
2.64089 1.14321
2.64323 1.13743
2.64558 1.12913
2.64792 1.12917
2.65027 1.13048
2.65261 1.12696
2.65496 1.11404
2.65731 1.11136
2.65965 1.11356
2.662 1.11732
2.66434 1.11792
2.66669 1.11004
2.66903 1.10151
2.67138 1.09787
2.67372 1.10033
2.67607 1.10257
2.67841 1.09529
2.68076 1.09522
2.6831 1.09712
2.68545 1.09342
2.68779 1.08755
2.69014 1.08672
2.69249 1.08313
2.69483 1.08398
2.69718 1.08588
2.69952 1.09061
2.70187 1.09875
2.70421 1.08984
2.70656 1.09042
2.7089 1.09029
2.71125 1.08941
2.71359 1.09138
2.71594 1.10452
2.71828 1.0991
2.72063 1.09479
2.72298 1.09686
2.72532 1.10445
2.72767 1.10545
2.73001 1.10451
2.73236 1.10473
2.7347 1.10665
2.73705 1.11103
2.73939 1.1209
2.74174 1.11952
2.74408 1.10793
2.74643 1.09965
2.74877 1.10079
2.75112 1.09794
2.75347 1.09051
2.75581 1.09306
2.75816 1.09112
2.7605 1.07917
2.76285 1.07044
2.76519 1.06137
2.76754 1.05532
2.76988 1.0459
2.77223 1.03468
2.77457 1.03421
2.77692 1.01878
2.77926 1.01305
2.78161 1.00469
2.78396 0.991455
2.7863 0.981843
2.78865 0.981437
2.79099 0.97937
2.79334 0.968295
2.79568 0.951776
2.79803 0.941926
2.80037 0.949933
2.80272 0.950195
2.80506 0.943084
2.80741 0.933222
2.80975 0.927535
2.8121 0.927271
2.81444 0.925304
2.81679 0.918725
2.81914 0.913299
2.82148 0.916375
2.82383 0.915101
2.82617 0.912186
2.82852 0.907555
2.83086 0.904612
2.83321 0.906062
2.83555 0.903672
2.8379 0.892987
2.84024 0.893151
2.84259 0.89436
2.84493 0.885763
2.84728 0.88182
2.84963 0.876136
2.85197 0.878677
2.85432 0.880069
2.85666 0.872811
2.85901 0.865104
2.86135 0.860556
2.8637 0.860406
2.86604 0.862773
2.86839 0.864428
2.87073 0.859932
2.87308 0.850956
2.87542 0.848048
2.87777 0.849405
2.88012 0.851346
2.88246 0.848667
2.88481 0.8462
2.88715 0.84892
2.8895 0.847445
2.89184 0.842138
2.89419 0.84586
2.89653 0.844968
2.89888 0.835836
2.90122 0.836829
2.90357 0.84721
2.90591 0.848902
2.90826 0.842059
2.91061 0.841729
2.91295 0.843555
2.9153 0.84316
2.91764 0.836954
2.91999 0.834833
2.92233 0.834815
2.92468 0.835448
2.92702 0.834624
2.92937 0.831352
2.93171 0.838818
2.93406 0.845364
2.9364 0.848104
2.93875 0.845329
2.94109 0.837671
2.94344 0.836481
2.94579 0.837894
2.94813 0.835491
2.95048 0.831718
2.95282 0.830362
2.95517 0.831321
2.95751 0.836337
2.95986 0.832457
2.9622 0.830361
2.96455 0.836592
2.96689 0.833224
2.96924 0.832344
2.97158 0.834974
2.97393 0.837646
2.97628 0.838985
2.97862 0.843182
2.98097 0.842708
2.98331 0.847994
2.98566 0.849383
2.988 0.846381
2.99035 0.854232
2.99269 0.85513
2.99504 0.85084
2.99738 0.853217
2.99973 0.861129
3.00207 0.85942
3.00442 0.861585
3.00677 0.867932
3.00911 0.871031
3.01146 0.870702
3.0138 0.872415
3.01615 0.8789
3.01849 0.888689
3.02084 0.893551
3.02318 0.894586
3.02553 0.897407
3.02787 0.898705
3.03022 0.905827
3.03256 0.91238
3.03491 0.91902
3.03726 0.927922
3.0396 0.933273
3.04195 0.943423
3.04429 0.945368
3.04664 0.947547
3.04898 0.96006
3.05133 0.975246
3.05367 0.978891
3.05602 0.981449
3.05836 0.984287
3.06071 0.988297
3.06305 0.997783
3.0654 1.01658
3.06774 1.03096
3.07009 1.04067
3.07244 1.04727
3.07478 1.05262
3.07713 1.063
3.07947 1.08203
3.08182 1.09803
3.08416 1.10565
3.08651 1.10981
3.08885 1.11849
3.0912 1.1358
3.09354 1.15756
3.09589 1.17901
3.09823 1.19521
3.10058 1.20195
3.10293 1.2057
3.10527 1.21584
3.10762 1.23134
3.10996 1.24505
3.11231 1.26932
3.11465 1.28585
3.117 1.30114
3.11934 1.31601
3.12169 1.32968
3.12403 1.35056
3.12638 1.36009
3.12872 1.36767
3.13107 1.3753
3.13342 1.38454
3.13576 1.4069
3.13811 1.41577
3.14045 1.43057
3.1428 1.44574
3.14514 1.45699
3.14749 1.482
3.14983 1.48557
3.15218 1.49129
3.15452 1.49251
3.15687 1.48959
3.15921 1.5072
3.16156 1.53208
3.16391 1.53132
3.16625 1.52597
3.1686 1.53067
3.17094 1.5447
