[DEFAULT]

version = diffpy.pdfgetx-2.2.1

# input and output specifications
dataformat = QA
inputfile = bf3_acc_r01.xyd
backgroundfiles = emptycap.xyd
outputtype = sq

# PDF calculation setup
mode = xray
composition = AlOOH
bgscales = 0.5
rpoly = 1.13
qmaxinst = 20.396
qmin = 0.406
qmax = 15
rmin = 0
rmax = 300
rstep = 0.01

# End of config --------------------------------------------------------------

#### start data
#S 1
#L Q(Å$^{-1}$)  S(a.u.)
0.408095 1.39854
0.41044 1.39487
0.412785 1.38998
0.415131 1.3855
0.417476 1.3836
0.419821 1.38218
0.422167 1.37856
0.424512 1.37442
0.426857 1.37071
0.429203 1.36727
0.431548 1.36197
0.433894 1.35946
0.436239 1.35715
0.438584 1.3542
0.44093 1.35322
0.443275 1.3496
0.44562 1.34692
0.447966 1.34523
0.450311 1.34377
0.452657 1.34052
0.455002 1.33719
0.457347 1.33437
0.459693 1.3326
0.462038 1.33137
0.464383 1.32755
0.466729 1.32556
0.469074 1.32301
0.47142 1.32068
0.473765 1.31867
0.47611 1.31415
0.478456 1.31322
0.480801 1.31077
0.483146 1.3088
0.485492 1.30842
0.487837 1.30458
0.490182 1.30287
0.492528 1.3013
0.494873 1.29958
0.497219 1.29755
0.499564 1.29445
0.501909 1.29193
0.504255 1.28994
0.5066 1.28835
0.508945 1.28677
0.511291 1.28373
0.513636 1.28044
0.515982 1.27939
0.518327 1.27989
0.520672 1.28023
0.523018 1.27745
0.525363 1.27489
0.527708 1.27193
0.530054 1.26861
0.532399 1.26525
0.534745 1.26268
0.53709 1.26231
0.539435 1.26083
0.541781 1.25844
0.544126 1.25652
0.546471 1.25651
0.548817 1.25375
0.551162 1.25097
0.553507 1.24972
0.555853 1.25055
0.558198 1.24729
0.560544 1.24535
0.562889 1.24579
0.565234 1.24652
0.56758 1.24412
0.569925 1.24059
0.57227 1.23831
0.574616 1.23647
0.576961 1.23492
0.579307 1.23391
0.581652 1.23515
0.583997 1.23307
0.586343 1.22936
0.588688 1.22606
0.591033 1.22551
0.593379 1.22434
0.595724 1.2215
0.59807 1.21995
0.600415 1.21958
0.60276 1.21788
0.605106 1.21567
0.607451 1.21457
0.609796 1.21358
0.612142 1.21236
0.614487 1.21112
0.616832 1.2117
0.619178 1.20923
0.621523 1.20567
0.623869 1.20307
0.626214 1.20371
0.628559 1.19923
0.630905 1.19792
0.63325 1.19781
0.635595 1.19706
0.637941 1.19407
0.640286 1.19332
0.642632 1.19172
0.644977 1.19117
0.647322 1.19141
0.649668 1.18863
0.652013 1.18747
0.654358 1.1875
0.656704 1.18667
0.659049 1.18341
0.661395 1.17669
0.66374 1.17875
0.666085 1.17997
0.668431 1.1786
0.670776 1.17525
0.673121 1.17423
0.675467 1.17399
0.677812 1.17091
0.680158 1.16863
0.682503 1.16898
0.684848 1.16821
0.687194 1.16773
0.689539 1.16367
0.691884 1.16011
0.69423 1.16024
0.696575 1.16292
0.69892 1.16429
0.701266 1.16198
0.703611 1.15884
0.705957 1.15679
0.708302 1.1522
0.710647 1.15104
0.712993 1.14974
0.715338 1.14857
0.717683 1.14828
0.720029 1.14935
0.722374 1.14644
0.72472 1.14536
0.727065 1.14573
0.72941 1.14564
0.731756 1.14162
0.734101 1.14005
0.736446 1.13966
0.738792 1.13878
0.741137 1.13626
0.743483 1.13434
0.745828 1.13404
0.748173 1.1342
0.750519 1.13298
0.752864 1.12928
0.755209 1.12827
0.757555 1.12863
0.7599 1.12766
0.762245 1.12561
0.764591 1.12368
0.766936 1.12303
0.769282 1.12151
0.771627 1.1203
0.773972 1.11908
0.776318 1.11714
0.778663 1.11565
0.781008 1.11463
0.783354 1.11427
0.785699 1.11373
0.788045 1.11199
0.79039 1.11177
0.792735 1.11106
0.795081 1.11156
0.797426 1.11231
0.799771 1.11116
0.802117 1.1089
0.804462 1.10774
0.806808 1.1071
0.809153 1.10565
0.811498 1.10189
0.813844 1.1011
0.816189 1.10118
0.818534 1.09908
0.82088 1.0961
0.823225 1.09612
0.82557 1.09571
0.827916 1.09552
0.830261 1.09519
0.832607 1.09422
0.834952 1.09204
0.837297 1.09064
0.839643 1.08861
0.841988 1.08762
0.844333 1.08708
0.846679 1.08444
0.849024 1.08274
0.85137 1.08185
0.853715 1.08234
0.85606 1.08337
0.858406 1.08274
0.860751 1.08245
0.863096 1.08015
0.865442 1.07742
0.867787 1.07585
0.870133 1.07709
0.872478 1.07483
0.874823 1.07462
0.877169 1.07423
0.879514 1.07267
0.881859 1.0707
0.884205 1.07151
0.88655 1.07163
0.888896 1.06889
0.891241 1.06502
0.893586 1.0677
0.895932 1.06722
0.898277 1.06562
0.900622 1.06408
0.902968 1.06362
0.905313 1.06515
0.907658 1.06225
0.910004 1.06113
0.912349 1.05947
0.914695 1.05621
0.91704 1.05351
0.919385 1.05563
0.921731 1.05638
0.924076 1.05596
0.926421 1.05487
0.928767 1.05317
0.931112 1.05116
0.933458 1.04929
0.935803 1.04774
0.938148 1.04632
0.940494 1.04394
0.942839 1.04328
0.945184 1.04191
0.94753 1.03973
0.949875 1.03773
0.952221 1.03939
0.954566 1.04063
0.956911 1.03928
0.959257 1.0381
0.961602 1.03913
0.963947 1.03995
0.966293 1.03755
0.968638 1.03598
0.970983 1.03598
0.973329 1.03688
0.975674 1.03464
0.97802 1.03116
0.980365 1.02983
0.98271 1.03006
0.985056 1.03034
0.987401 1.02831
0.989746 1.02789
0.992092 1.02774
0.994437 1.02641
0.996783 1.02331
0.999128 1.02186
1.00147 1.0252
1.00382 1.02551
1.00616 1.02358
1.00851 1.02182
1.01085 1.01994
1.0132 1.02013
1.01555 1.01799
1.01789 1.01558
1.02024 1.01605
1.02258 1.01849
1.02493 1.01692
1.02727 1.0171
1.02962 1.01769
1.03196 1.01576
1.03431 1.01256
1.03665 1.0135
1.039 1.01333
1.04134 1.01083
1.04369 1.00674
1.04604 1.00683
1.04838 1.00685
1.05073 1.00711
1.05307 1.00731
1.05542 1.00694
1.05776 1.00563
1.06011 1.00462
1.06245 1.00321
1.0648 1.00187
1.06714 1.00132
1.06949 0.998956
1.07183 1.00072
1.07418 1.00355
1.07653 1.00521
1.07887 1.00404
1.08122 1.00317
1.08356 1.0026
1.08591 0.999817
1.08825 0.996833
1.0906 0.997823
1.09294 0.998688
1.09529 0.996236
1.09763 0.99524
1.09998 0.996424
1.10232 0.998054
1.10467 0.999175
1.10701 0.99672
1.10936 0.997325
1.11171 0.999531
1.11405 0.996514
1.1164 0.991755
1.11874 0.991886
1.12109 0.992701
1.12343 0.991799
1.12578 0.98821
1.12812 0.991087
1.13047 0.991372
1.13281 0.991579
1.13516 0.991728
1.1375 0.989781
1.13985 0.98805
1.1422 0.987874
1.14454 0.98874
1.14689 0.988674
1.14923 0.984268
1.15158 0.982149
1.15392 0.984004
1.15627 0.986025
1.15861 0.986443
1.16096 0.98559
1.1633 0.985357
1.16565 0.980364
1.16799 0.979206
1.17034 0.982162
1.17269 0.979658
1.17503 0.979698
1.17738 0.977991
1.17972 0.978045
1.18207 0.97865
1.18441 0.972201
1.18676 0.971383
1.1891 0.972799
1.19145 0.973478
1.19379 0.972322
1.19614 0.970765
1.19848 0.970125
1.20083 0.973279
1.20318 0.97292
1.20552 0.967303
1.20787 0.963685
1.21021 0.966127
1.21256 0.966658
1.2149 0.964602
1.21725 0.962027
1.21959 0.965318
1.22194 0.967707
1.22428 0.966216
1.22663 0.965606
1.22897 0.966797
1.23132 0.962646
1.23366 0.961107
1.23601 0.960787
1.23836 0.960399
1.2407 0.95978
1.24305 0.961116
1.24539 0.959962
1.24774 0.96015
1.25008 0.960192
1.25243 0.958772
1.25477 0.955704
1.25712 0.954321
1.25946 0.956797
1.26181 0.96015
1.26415 0.961113
1.2665 0.956493
1.26885 0.954145
1.27119 0.95473
1.27354 0.955876
1.27588 0.955703
1.27823 0.954353
1.28057 0.950965
1.28292 0.952409
1.28526 0.954257
1.28761 0.952603
1.28995 0.94852
1.2923 0.948187
1.29464 0.945497
1.29699 0.94253
1.29934 0.942161
1.30168 0.946821
1.30403 0.946305
1.30637 0.946291
1.30872 0.94719
1.31106 0.94863
1.31341 0.950178
1.31575 0.949615
1.3181 0.947984
1.32044 0.94701
1.32279 0.947463
1.32513 0.946148
1.32748 0.944637
1.32983 0.94468
1.33217 0.945007
1.33452 0.944759
1.33686 0.947004
1.33921 0.946707
1.34155 0.945145
1.3439 0.944782
1.34624 0.946793
1.34859 0.945713
1.35093 0.945716
1.35328 0.944373
1.35562 0.942649
1.35797 0.942011
1.36032 0.942999
1.36266 0.944941
1.36501 0.944984
1.36735 0.944305
1.3697 0.944829
1.37204 0.947623
1.37439 0.947541
1.37673 0.941365
1.37908 0.933301
1.38142 0.929629
1.38377 0.937781
1.38611 0.93766
1.38846 0.935241
1.3908 0.933901
1.39315 0.934941
1.3955 0.930441
1.39784 0.928025
1.40019 0.924522
1.40253 0.921626
1.40488 0.921494
1.40722 0.920607
1.40957 0.919647
1.41191 0.917008
1.41426 0.913307
1.4166 0.909884
1.41895 0.908087
1.42129 0.906279
1.42364 0.90513
1.42599 0.904203
1.42833 0.902985
1.43068 0.903252
1.43302 0.899888
1.43537 0.899629
1.43771 0.90022
1.44006 0.897359
1.4424 0.895344
1.44475 0.894562
1.44709 0.893809
1.44944 0.892269
1.45178 0.889807
1.45413 0.891214
1.45648 0.889563
1.45882 0.887616
1.46117 0.885459
1.46351 0.882689
1.46586 0.883491
1.4682 0.883235
1.47055 0.882647
1.47289 0.881999
1.47524 0.881165
1.47758 0.877431
1.47993 0.874647
1.48227 0.873204
1.48462 0.873503
1.48697 0.875483
1.48931 0.874613
1.49166 0.872736
1.494 0.871959
1.49635 0.872407
1.49869 0.873362
1.50104 0.874916
1.50338 0.869859
1.50573 0.867262
1.50807 0.868449
1.51042 0.870424
1.51276 0.860619
1.51511 0.862353
1.51745 0.864457
1.5198 0.865222
1.52215 0.866693
1.52449 0.861995
1.52684 0.862919
1.52918 0.860825
1.53153 0.857246
1.53387 0.858314
1.53622 0.861278
1.53856 0.862755
1.54091 0.861484
1.54325 0.858777
1.5456 0.857241
1.54794 0.856444
1.55029 0.852446
1.55264 0.854997
1.55498 0.859652
1.55733 0.855114
1.55967 0.849673
1.56202 0.851176
1.56436 0.851916
1.56671 0.851906
1.56905 0.854788
1.5714 0.851655
1.57374 0.849199
1.57609 0.847134
1.57843 0.846198
1.58078 0.847609
1.58313 0.850511
1.58547 0.846902
1.58782 0.843512
1.59016 0.842884
1.59251 0.844902
1.59485 0.844137
1.5972 0.84317
1.59954 0.842317
1.60189 0.841397
1.60423 0.839859
1.60658 0.835838
1.60892 0.839992
1.61127 0.841522
1.61362 0.839586
1.61596 0.839189
1.61831 0.83395
1.62065 0.833289
1.623 0.83368
1.62534 0.833372
1.62769 0.831816
1.63003 0.832656
1.63238 0.83382
1.63472 0.833969
1.63707 0.834038
1.63941 0.83608
1.64176 0.83006
1.6441 0.829128
1.64645 0.83174
1.6488 0.833627
1.65114 0.828998
1.65349 0.827881
1.65583 0.830121
1.65818 0.831157
1.66052 0.831505
1.66287 0.834805
1.66521 0.832938
1.66756 0.8308
1.6699 0.828166
1.67225 0.825913
1.67459 0.825604
1.67694 0.82523
1.67929 0.823721
1.68163 0.825667
1.68398 0.828981
1.68632 0.82716
1.68867 0.82798
1.69101 0.832051
1.69336 0.832229
1.6957 0.827922
1.69805 0.82339
1.70039 0.82621
1.70274 0.82568
1.70508 0.825269
1.70743 0.827081
1.70978 0.831911
1.71212 0.827317
1.71447 0.827563
1.71681 0.828708
1.71916 0.828269
1.7215 0.825013
1.72385 0.82778
1.72619 0.827357
1.72854 0.826655
1.73088 0.827228
1.73323 0.829555
1.73557 0.829082
1.73792 0.82797
1.74027 0.825146
1.74261 0.821924
1.74496 0.821327
1.7473 0.823036
1.74965 0.823475
1.75199 0.826664
1.75434 0.829415
1.75668 0.823823
1.75903 0.823689
1.76137 0.824625
1.76372 0.821509
1.76606 0.816872
1.76841 0.818437
1.77075 0.817543
1.7731 0.815385
1.77545 0.819121
1.77779 0.825787
1.78014 0.825461
1.78248 0.824925
1.78483 0.825494
1.78717 0.825301
1.78952 0.822874
1.79186 0.817396
1.79421 0.820287
1.79655 0.819482
1.7989 0.818404
1.80124 0.817826
1.80359 0.816837
1.80594 0.818481
1.80828 0.821951
1.81063 0.819454
1.81297 0.813766
1.81532 0.814663
1.81766 0.816628
1.82001 0.817119
1.82235 0.816755
1.8247 0.81819
1.82704 0.824939
1.82939 0.823928
1.83173 0.819027
1.83408 0.818701
1.83643 0.822294
1.83877 0.823022
1.84112 0.816202
1.84346 0.816307
1.84581 0.815174
1.84815 0.812777
1.8505 0.814129
1.85284 0.818048
1.85519 0.817458
1.85753 0.816558
1.85988 0.816035
1.86222 0.814308
1.86457 0.807688
1.86692 0.805536
1.86926 0.808172
1.87161 0.813083
1.87395 0.815815
1.8763 0.812831
1.87864 0.813479
1.88099 0.813703
1.88333 0.812737
1.88568 0.811919
1.88802 0.815523
1.89037 0.816908
1.89271 0.818041
1.89506 0.818673
1.8974 0.817498
1.89975 0.816986
1.9021 0.817634
1.90444 0.817392
1.90679 0.817041
1.90913 0.818586
1.91148 0.81726
1.91382 0.819379
1.91617 0.821189
1.91851 0.820104
1.92086 0.814896
1.9232 0.816348
1.92555 0.818504
1.92789 0.819538
1.93024 0.820632
1.93259 0.823776
1.93493 0.819314
1.93728 0.820026
1.93962 0.821293
1.94197 0.822605
1.94431 0.824944
1.94666 0.822844
1.949 0.819539
1.95135 0.819725
1.95369 0.820912
1.95604 0.818052
1.95838 0.81842
1.96073 0.819914
1.96308 0.821773
1.96542 0.823122
1.96777 0.823197
1.97011 0.823345
1.97246 0.822296
1.9748 0.820511
1.97715 0.821002
1.97949 0.826133
1.98184 0.819479
1.98418 0.825338
1.98653 0.827798
1.98887 0.822826
1.99122 0.813392
1.99357 0.823076
1.99591 0.824462
1.99826 0.825969
2.0006 0.828645
2.00295 0.830601
2.00529 0.82832
2.00764 0.830785
2.00998 0.83223
2.01233 0.832306
2.01467 0.833101
2.01702 0.840771
2.01936 0.835766
2.02171 0.831981
2.02405 0.832252
2.0264 0.835836
2.02875 0.843326
2.03109 0.846488
2.03344 0.843043
2.03578 0.838425
2.03813 0.838916
2.04047 0.838184
2.04282 0.835411
2.04516 0.840836
2.04751 0.847576
2.04985 0.846607
2.0522 0.848487
2.05454 0.849547
2.05689 0.851976
2.05924 0.852168
2.06158 0.847662
2.06393 0.851738
2.06627 0.855141
2.06862 0.856369
2.07096 0.857226
2.07331 0.860351
2.07565 0.868341
2.078 0.869301
2.08034 0.865055
2.08269 0.864305
2.08503 0.873006
2.08738 0.876065
2.08973 0.875295
2.09207 0.876111
2.09442 0.877878
2.09676 0.880024
2.09911 0.8883
2.10145 0.887045
2.1038 0.887974
2.10614 0.890714
2.10849 0.893326
2.11083 0.897137
2.11318 0.902023
2.11552 0.905493
2.11787 0.907924
2.12022 0.911125
2.12256 0.920429
2.12491 0.919201
2.12725 0.920917
2.1296 0.92551
2.13194 0.93164
2.13429 0.941261
2.13663 0.94278
2.13898 0.948274
2.14132 0.955112
2.14367 0.95926
2.14601 0.958467
2.14836 0.966894
2.1507 0.977288
2.15305 0.986653
2.1554 0.992118
2.15774 0.989196
2.16009 0.991529
2.16243 1.00022
2.16478 1.01016
2.16712 1.01709
2.16947 1.02053
2.17181 1.02336
2.17416 1.02964
2.1765 1.0377
2.17885 1.04482
2.18119 1.04712
2.18354 1.04726
2.18589 1.05355
2.18823 1.06067
2.19058 1.06503
2.19292 1.06868
2.19527 1.06665
2.19761 1.06974
2.19996 1.07216
2.2023 1.06926
2.20465 1.06003
2.20699 1.06782
2.20934 1.07238
2.21168 1.07347
2.21403 1.073
2.21638 1.07466
2.21872 1.08055
2.22107 1.08052
2.22341 1.07628
2.22576 1.07136
2.2281 1.0712
2.23045 1.07691
2.23279 1.08012
2.23514 1.08244
2.23748 1.08471
2.23983 1.08644
2.24217 1.09289
2.24452 1.09436
2.24687 1.09798
2.24921 1.1056
2.25156 1.11262
2.2539 1.10542
2.25625 1.10906
2.25859 1.11113
2.26094 1.11016
2.26328 1.11602
2.26563 1.12911
2.26797 1.13435
2.27032 1.13924
2.27266 1.14669
2.27501 1.1555
2.27735 1.16656
2.2797 1.17367
2.28205 1.17769
2.28439 1.18389
2.28674 1.20036
2.28908 1.20995
2.29143 1.21623
2.29377 1.21621
2.29612 1.21211
2.29846 1.20948
2.30081 1.20309
2.30315 1.19026
2.3055 1.1751
2.30784 1.16115
2.31019 1.15099
2.31254 1.13357
2.31488 1.1095
2.31723 1.09019
2.31957 1.0763
2.32192 1.06298
2.32426 1.04937
2.32661 1.03612
2.32895 1.02905
2.3313 1.02437
2.33364 1.01429
2.33599 0.998308
2.33833 0.996982
2.34068 0.998522
2.34303 0.997254
2.34537 0.991265
2.34772 0.991756
2.35006 0.981368
2.35241 0.973648
2.35475 0.972059
2.3571 0.975567
2.35944 0.976522
2.36179 0.973462
2.36413 0.971959
2.36648 0.971522
2.36882 0.970656
2.37117 0.972601
2.37352 0.973117
2.37586 0.975738
2.37821 0.979015
2.38055 0.980115
2.3829 0.975425
2.38524 0.977465
2.38759 0.977978
2.38993 0.976598
2.39228 0.974453
2.39462 0.971859
2.39697 0.981894
2.39931 0.994872
2.40166 1.00265
2.404 1.00082
2.40635 0.996057
2.4087 0.994768
2.41104 0.995264
2.41339 0.996745
2.41573 0.998699
2.41808 1.00126
2.42042 1.00583
2.42277 1.00763
2.42511 1.00513
2.42746 1.00149
2.4298 1.01045
2.43215 1.01156
2.43449 1.01195
2.43684 1.01209
2.43919 1.01222
2.44153 1.01335
2.44388 1.01656
2.44622 1.01983
2.44857 1.02147
2.45091 1.02188
2.45326 1.02497
2.4556 1.02601
2.45795 1.03443
2.46029 1.04104
2.46264 1.04237
2.46498 1.04424
2.46733 1.03912
2.46968 1.04033
2.47202 1.04701
2.47437 1.05542
2.47671 1.05888
2.47906 1.05894
2.4814 1.06013
2.48375 1.06384
2.48609 1.07015
2.48844 1.07776
2.49078 1.08374
2.49313 1.09172
2.49547 1.09849
2.49782 1.10539
2.50017 1.11709
2.50251 1.11861
2.50486 1.12496
2.5072 1.13054
2.50955 1.13679
2.51189 1.14929
2.51424 1.15716
2.51658 1.16722
2.51893 1.17098
2.52127 1.17328
2.52362 1.1853
2.52596 1.19638
2.52831 1.2111
2.53066 1.21691
2.533 1.22077
2.53535 1.23551
2.53769 1.23645
2.54004 1.24509
2.54238 1.25803
2.54473 1.27168
2.54707 1.28211
2.54942 1.28488
2.55176 1.27504
2.55411 1.27853
2.55645 1.29013
2.5588 1.29677
2.56114 1.29845
2.56349 1.29299
2.56584 1.29732
2.56818 1.30201
2.57053 1.29703
2.57287 1.30048
2.57522 1.29204
2.57756 1.28455
2.57991 1.27825
2.58225 1.2716
2.5846 1.26538
2.58694 1.25855
2.58929 1.25421
2.59163 1.24957
2.59398 1.2408
2.59633 1.22322
2.59867 1.2151
2.60102 1.21434
2.60336 1.21277
2.60571 1.20557
2.60805 1.19712
2.6104 1.18758
2.61274 1.18182
2.61509 1.17635
2.61743 1.16873
2.61978 1.15969
2.62212 1.16237
2.62447 1.15254
2.62682 1.14494
2.62916 1.14509
2.63151 1.1417
2.63385 1.13648
2.6362 1.12559
2.63854 1.12125
2.64089 1.12414
2.64323 1.12064
2.64558 1.11317
2.64792 1.10741
2.65027 1.10634
2.65261 1.1083
2.65496 1.10726
2.65731 1.10353
2.65965 1.10352
2.662 1.10552
2.66434 1.10935
2.66669 1.11561
2.66903 1.11503
2.67138 1.11615
2.67372 1.11697
2.67607 1.11992
2.67841 1.12878
2.68076 1.12796
2.6831 1.13544
2.68545 1.13532
2.68779 1.13119
2.69014 1.13462
2.69249 1.14403
2.69483 1.15378
2.69718 1.16286
2.69952 1.17147
2.70187 1.17931
2.70421 1.17877
2.70656 1.18246
2.7089 1.18683
2.71125 1.19148
2.71359 1.19673
2.71594 1.20226
2.71828 1.20362
2.72063 1.20556
2.72298 1.21161
2.72532 1.22212
2.72767 1.22667
2.73001 1.22117
2.73236 1.21716
2.7347 1.21852
2.73705 1.2252
2.73939 1.22969
2.74174 1.22889
2.74408 1.22818
2.74643 1.22691
2.74877 1.22315
2.75112 1.21334
2.75347 1.21436
2.75581 1.20616
2.75816 1.20116
2.7605 1.20021
2.76285 1.18002
2.76519 1.16083
2.76754 1.14716
2.76988 1.13563
2.77223 1.12374
2.77457 1.11067
2.77692 1.09509
2.77926 1.0787
2.78161 1.06257
2.78396 1.04876
2.7863 1.04012
2.78865 1.02433
2.79099 1.00825
2.79334 0.990929
2.79568 0.974949
2.79803 0.965224
2.80037 0.958018
2.80272 0.954476
2.80506 0.947213
2.80741 0.935774
2.80975 0.924405
2.8121 0.924632
2.81444 0.917099
2.81679 0.905893
2.81914 0.895534
2.82148 0.890237
2.82383 0.888967
2.82617 0.884452
2.82852 0.88274
2.83086 0.881578
2.83321 0.876965
2.83555 0.870811
2.8379 0.860052
2.84024 0.858451
2.84259 0.856601
2.84493 0.845245
2.84728 0.839523
2.84963 0.836412
2.85197 0.834164
2.85432 0.831057
2.85666 0.826471
2.85901 0.82313
2.86135 0.82178
2.8637 0.821974
2.86604 0.82402
2.86839 0.82483
2.87073 0.81323
2.87308 0.811275
2.87542 0.812666
2.87777 0.812803
2.88012 0.809499
2.88246 0.804298
2.88481 0.805371
2.88715 0.806491
2.8895 0.804974
2.89184 0.802019
2.89419 0.803373
2.89653 0.802236
2.89888 0.794514
2.90122 0.793799
2.90357 0.797249
2.90591 0.787754
2.90826 0.787472
2.91061 0.79585
2.91295 0.79834
2.9153 0.790162
2.91764 0.774633
2.91999 0.7768
2.92233 0.779579
2.92468 0.782022
2.92702 0.782313
2.92937 0.779607
2.93171 0.786302
2.93406 0.784451
2.9364 0.78063
2.93875 0.777631
2.94109 0.777273
2.94344 0.783403
2.94579 0.785257
2.94813 0.777997
2.95048 0.769372
2.95282 0.767673
2.95517 0.769618
2.95751 0.77369
2.95986 0.769094
2.9622 0.764788
2.96455 0.766688
2.96689 0.761352
2.96924 0.763377
2.97158 0.76678
2.97393 0.767901
2.97628 0.765435
2.97862 0.762362
2.98097 0.770356
2.98331 0.769173
2.98566 0.765618
2.988 0.765677
2.99035 0.771477
2.99269 0.773732
2.99504 0.770178
2.99738 0.769842
2.99973 0.774575
3.00207 0.778196
3.00442 0.787555
3.00677 0.786136
3.00911 0.783112
3.01146 0.784301
3.0138 0.792022
3.01615 0.792464
3.01849 0.793302
3.02084 0.794599
3.02318 0.798577
3.02553 0.807068
3.02787 0.804576
3.03022 0.814871
3.03256 0.827813
3.03491 0.834952
3.03726 0.832482
3.0396 0.843946
3.04195 0.852601
3.04429 0.859371
3.04664 0.867304
3.04898 0.879257
3.05133 0.894954
3.05367 0.906515
3.05602 0.914913
3.05836 0.927566
3.06071 0.946862
3.06305 0.956952
3.0654 0.975465
3.06774 0.994791
3.07009 1.01205
3.07244 1.02804
3.07478 1.05017
3.07713 1.06944
3.07947 1.09701
3.08182 1.12232
3.08416 1.14468
3.08651 1.17922
3.08885 1.1982
3.0912 1.22078
3.09354 1.25233
3.09589 1.29003
3.09823 1.32346
3.10058 1.35614
3.10293 1.37758
3.10527 1.40104
3.10762 1.42817
3.10996 1.45301
3.11231 1.47811
3.11465 1.50037
3.117 1.52817
3.11934 1.55837
3.12169 1.58296
3.12403 1.60023
3.12638 1.61539
3.12872 1.62617
3.13107 1.63607
3.13342 1.64779
3.13576 1.64964
3.13811 1.65315
3.14045 1.66488
3.1428 1.66789
3.14514 1.65498
3.14749 1.66816
3.14983 1.66419
3.15218 1.65656
3.15452 1.6453
3.15687 1.63135
3.15921 1.62103
3.16156 1.60218
3.16391 1.57761
3.16625 1.54971
3.1686 1.52412
3.17094 1.51118
3.17329 1.49029
3.17563 1.46525
3.17798 1.44013
