[DEFAULT]

version = diffpy.pdfgetx-2.2.1

# input and output specifications
dataformat = QA
inputfile = bf6_acc_r01.xyd
backgroundfiles = emptycap.xyd
outputtype = sq

# PDF calculation setup
mode = xray
composition = AlOOH
bgscales = 0.5
rpoly = 1.13
qmaxinst = 20.396
qmin = 0.406
qmax = 15
rmin = 0
rmax = 300
rstep = 0.01

# End of config --------------------------------------------------------------

#### start data
#S 1
#L Q(Å$^{-1}$)  S(a.u.)
0.408095 1.45598
0.41044 1.45122
0.412785 1.44703
0.415131 1.44194
0.417476 1.43619
0.419821 1.42945
0.422167 1.42406
0.424512 1.41888
0.426857 1.41399
0.429203 1.41141
0.431548 1.40408
0.433894 1.39748
0.436239 1.3927
0.438584 1.38942
0.44093 1.38521
0.443275 1.37919
0.44562 1.37702
0.447966 1.37298
0.450311 1.36512
0.452657 1.36013
0.455002 1.35984
0.457347 1.35583
0.459693 1.35047
0.462038 1.34595
0.464383 1.34217
0.466729 1.33886
0.469074 1.33667
0.47142 1.33334
0.473765 1.32757
0.47611 1.32142
0.478456 1.32089
0.480801 1.31961
0.483146 1.31563
0.485492 1.30897
0.487837 1.30421
0.490182 1.30454
0.492528 1.30252
0.494873 1.29847
0.497219 1.29443
0.499564 1.29422
0.501909 1.28934
0.504255 1.28631
0.5066 1.28397
0.508945 1.28034
0.511291 1.2767
0.513636 1.27758
0.515982 1.27529
0.518327 1.27102
0.520672 1.26769
0.523018 1.26558
0.525363 1.26147
0.527708 1.25633
0.530054 1.25207
0.532399 1.25041
0.534745 1.24965
0.53709 1.24692
0.539435 1.24484
0.541781 1.24346
0.544126 1.24195
0.546471 1.2392
0.548817 1.23504
0.551162 1.23193
0.553507 1.23056
0.555853 1.23043
0.558198 1.22494
0.560544 1.22269
0.562889 1.22122
0.565234 1.21917
0.56758 1.2157
0.569925 1.21196
0.57227 1.21072
0.574616 1.20979
0.576961 1.2085
0.579307 1.20699
0.581652 1.20681
0.583997 1.20432
0.586343 1.20206
0.588688 1.19972
0.591033 1.1953
0.593379 1.19589
0.595724 1.19394
0.59807 1.19091
0.600415 1.18781
0.60276 1.18542
0.605106 1.18521
0.607451 1.18406
0.609796 1.18299
0.612142 1.18263
0.614487 1.18331
0.616832 1.17827
0.619178 1.1751
0.621523 1.17326
0.623869 1.17197
0.626214 1.17015
0.628559 1.16607
0.630905 1.16525
0.63325 1.16383
0.635595 1.16035
0.637941 1.15641
0.640286 1.15563
0.642632 1.15413
0.644977 1.15351
0.647322 1.15386
0.649668 1.15279
0.652013 1.15069
0.654358 1.15009
0.656704 1.14923
0.659049 1.14663
0.661395 1.14144
0.66374 1.1403
0.666085 1.14075
0.668431 1.13963
0.670776 1.13664
0.673121 1.13745
0.675467 1.13427
0.677812 1.13237
0.680158 1.13121
0.682503 1.13048
0.684848 1.13178
0.687194 1.13001
0.689539 1.12837
0.691884 1.12763
0.69423 1.12724
0.696575 1.12359
0.69892 1.12366
0.701266 1.1218
0.703611 1.11836
0.705957 1.1147
0.708302 1.11301
0.710647 1.11422
0.712993 1.11383
0.715338 1.11252
0.717683 1.11152
0.720029 1.11093
0.722374 1.10929
0.72472 1.10764
0.727065 1.10655
0.72941 1.10613
0.731756 1.10491
0.734101 1.10499
0.736446 1.10392
0.738792 1.10145
0.741137 1.09801
0.743483 1.09462
0.745828 1.09481
0.748173 1.09718
0.750519 1.09853
0.752864 1.09591
0.755209 1.09082
0.757555 1.09113
0.7599 1.09035
0.762245 1.08759
0.764591 1.08409
0.766936 1.08463
0.769282 1.085
0.771627 1.08488
0.773972 1.08404
0.776318 1.08248
0.778663 1.0816
0.781008 1.08024
0.783354 1.07732
0.785699 1.07474
0.788045 1.07509
0.79039 1.07367
0.792735 1.07183
0.795081 1.071
0.797426 1.07123
0.799771 1.07181
0.802117 1.07129
0.804462 1.07001
0.806808 1.0692
0.809153 1.068
0.811498 1.06459
0.813844 1.06294
0.816189 1.06276
0.818534 1.0622
0.82088 1.0609
0.823225 1.05954
0.82557 1.0604
0.827916 1.05876
0.830261 1.05689
0.832607 1.05613
0.834952 1.05703
0.837297 1.05604
0.839643 1.05398
0.841988 1.0519
0.844333 1.05075
0.846679 1.05135
0.849024 1.04974
0.85137 1.04792
0.853715 1.04747
0.85606 1.04811
0.858406 1.04776
0.860751 1.04805
0.863096 1.0467
0.865442 1.04501
0.867787 1.04346
0.870133 1.04155
0.872478 1.03762
0.874823 1.03782
0.877169 1.03826
0.879514 1.03724
0.881859 1.03608
0.884205 1.03405
0.88655 1.03387
0.888896 1.03316
0.891241 1.03184
0.893586 1.03354
0.895932 1.03215
0.898277 1.0304
0.900622 1.031
0.902968 1.033
0.905313 1.02917
0.907658 1.02762
0.910004 1.02697
0.912349 1.02557
0.914695 1.02302
0.91704 1.02128
0.919385 1.02097
0.921731 1.02058
0.924076 1.01969
0.926421 1.01823
0.928767 1.01658
0.931112 1.01825
0.933458 1.0191
0.935803 1.01792
0.938148 1.01512
0.940494 1.01437
0.942839 1.01245
0.945184 1.01402
0.94753 1.01421
0.949875 1.01041
0.952221 1.00925
0.954566 1.01041
0.956911 1.00851
0.959257 1.00738
0.961602 1.00954
0.963947 1.00941
0.966293 1.00713
0.968638 1.00513
0.970983 1.00462
0.973329 1.00553
0.975674 1.0038
0.97802 0.999959
0.980365 0.999536
0.98271 0.999318
0.985056 0.996652
0.987401 0.998242
0.989746 0.997368
0.992092 0.997528
0.994437 0.99767
0.996783 0.996523
0.999128 0.996344
1.00147 0.997967
1.00382 0.997648
1.00616 0.995459
1.00851 0.99271
1.01085 0.992276
1.0132 0.99199
1.01555 0.992428
1.01789 0.992846
1.02024 0.992509
1.02258 0.993211
1.02493 0.990261
1.02727 0.989343
1.02962 0.98907
1.03196 0.986613
1.03431 0.984965
1.03665 0.985436
1.039 0.985729
1.04134 0.985274
1.04369 0.984119
1.04604 0.98263
1.04838 0.980625
1.05073 0.979631
1.05307 0.979098
1.05542 0.977738
1.05776 0.975521
1.06011 0.974725
1.06245 0.975836
1.0648 0.978348
1.06714 0.980875
1.06949 0.97767
1.07183 0.975842
1.07418 0.975142
1.07653 0.975589
1.07887 0.976999
1.08122 0.974996
1.08356 0.975318
1.08591 0.975459
1.08825 0.97552
1.0906 0.97667
1.09294 0.973279
1.09529 0.972332
1.09763 0.97321
1.09998 0.974092
1.10232 0.972514
1.10467 0.971927
1.10701 0.970216
1.10936 0.970805
1.11171 0.97204
1.11405 0.968883
1.1164 0.963554
1.11874 0.962499
1.12109 0.962419
1.12343 0.961717
1.12578 0.959988
1.12812 0.957079
1.13047 0.958264
1.13281 0.960518
1.13516 0.960783
1.1375 0.955953
1.13985 0.956049
1.1422 0.957098
1.14454 0.958052
1.14689 0.957835
1.14923 0.955315
1.15158 0.955363
1.15392 0.953445
1.15627 0.953565
1.15861 0.956062
1.16096 0.957405
1.1633 0.957429
1.16565 0.955962
1.16799 0.954864
1.17034 0.954409
1.17269 0.953001
1.17503 0.953393
1.17738 0.953958
1.17972 0.955134
1.18207 0.955581
1.18441 0.951482
1.18676 0.950122
1.1891 0.954167
1.19145 0.956781
1.19379 0.954883
1.19614 0.9508
1.19848 0.94803
1.20083 0.950725
1.20318 0.952158
1.20552 0.94998
1.20787 0.949085
1.21021 0.952523
1.21256 0.952873
1.2149 0.951984
1.21725 0.951457
1.21959 0.95182
1.22194 0.952389
1.22428 0.951811
1.22663 0.952376
1.22897 0.954202
1.23132 0.952929
1.23366 0.954278
1.23601 0.953819
1.23836 0.952778
1.2407 0.952573
1.24305 0.954386
1.24539 0.956703
1.24774 0.956341
1.25008 0.955574
1.25243 0.956255
1.25477 0.958511
1.25712 0.957503
1.25946 0.95482
1.26181 0.955764
1.26415 0.961002
1.2665 0.959137
1.26885 0.957767
1.27119 0.959164
1.27354 0.962577
1.27588 0.966507
1.27823 0.968326
1.28057 0.971831
1.28292 0.974478
1.28526 0.975176
1.28761 0.974739
1.28995 0.979047
1.2923 0.984046
1.29464 0.985247
1.29699 0.980709
1.29934 0.971807
1.30168 0.968867
1.30403 0.971998
1.30637 0.973435
1.30872 0.973133
1.31106 0.972129
1.31341 0.971232
1.31575 0.970656
1.3181 0.969922
1.32044 0.969295
1.32279 0.968926
1.32513 0.968097
1.32748 0.964739
1.32983 0.959207
1.33217 0.951085
1.33452 0.941318
1.33686 0.936608
1.33921 0.934032
1.34155 0.931696
1.3439 0.931634
1.34624 0.934585
1.34859 0.932619
1.35093 0.93261
1.35328 0.932703
1.35562 0.932483
1.35797 0.932349
1.36032 0.935316
1.36266 0.93301
1.36501 0.930999
1.36735 0.929829
1.3697 0.928877
1.37204 0.92718
1.37439 0.93036
1.37673 0.931291
1.37908 0.926981
1.38142 0.918427
1.38377 0.92288
1.38611 0.925344
1.38846 0.925929
1.3908 0.926246
1.39315 0.928061
1.3955 0.931462
1.39784 0.927621
1.40019 0.925278
1.40253 0.925512
1.40488 0.927217
1.40722 0.929093
1.40957 0.928568
1.41191 0.927692
1.41426 0.927797
1.4166 0.929709
1.41895 0.932127
1.42129 0.935242
1.42364 0.937895
1.42599 0.941048
1.42833 0.9457
1.43068 0.948011
1.43302 0.949748
1.43537 0.949834
1.43771 0.946384
1.44006 0.93804
1.4424 0.928934
1.44475 0.926603
1.44709 0.925048
1.44944 0.922952
1.45178 0.920098
1.45413 0.911983
1.45648 0.907137
1.45882 0.90276
1.46117 0.900578
1.46351 0.902814
1.46586 0.900811
1.4682 0.899265
1.47055 0.898739
1.47289 0.899692
1.47524 0.901541
1.47758 0.89375
1.47993 0.890778
1.48227 0.890638
1.48462 0.890194
1.48697 0.886546
1.48931 0.886954
1.49166 0.889238
1.494 0.887846
1.49635 0.884363
1.49869 0.883087
1.50104 0.881486
1.50338 0.878075
1.50573 0.879368
1.50807 0.88352
1.51042 0.884855
1.51276 0.880366
1.51511 0.878867
1.51745 0.879242
1.5198 0.880361
1.52215 0.880862
1.52449 0.877874
1.52684 0.877998
1.52918 0.877778
1.53153 0.87679
1.53387 0.875934
1.53622 0.873404
1.53856 0.874901
1.54091 0.875768
1.54325 0.874625
1.5456 0.871821
1.54794 0.86842
1.55029 0.868361
1.55264 0.872176
1.55498 0.87604
1.55733 0.874052
1.55967 0.869502
1.56202 0.867772
1.56436 0.867994
1.56671 0.869463
1.56905 0.871342
1.5714 0.870712
1.57374 0.863748
1.57609 0.857451
1.57843 0.856268
1.58078 0.862602
1.58313 0.865656
1.58547 0.867334
1.58782 0.865373
1.59016 0.861967
1.59251 0.861918
1.59485 0.864809
1.5972 0.861438
1.59954 0.858676
1.60189 0.858634
1.60423 0.860497
1.60658 0.861928
1.60892 0.862196
1.61127 0.861901
1.61362 0.863102
1.61596 0.868205
1.61831 0.863981
1.62065 0.859945
1.623 0.858763
1.62534 0.857853
1.62769 0.851792
1.63003 0.853574
1.63238 0.857208
1.63472 0.858189
1.63707 0.856715
1.63941 0.856028
1.64176 0.855375
1.6441 0.857137
1.64645 0.856043
1.6488 0.853096
1.65114 0.853388
1.65349 0.854968
1.65583 0.855311
1.65818 0.854008
1.66052 0.852879
1.66287 0.855206
1.66521 0.859341
1.66756 0.859571
1.6699 0.858133
1.67225 0.855938
1.67459 0.853145
1.67694 0.85259
1.67929 0.852437
1.68163 0.854339
1.68398 0.85607
1.68632 0.852949
1.68867 0.853037
1.69101 0.856038
1.69336 0.857062
1.6957 0.855395
1.69805 0.853293
1.70039 0.851917
1.70274 0.85334
1.70508 0.855582
1.70743 0.85703
1.70978 0.856402
1.71212 0.857251
1.71447 0.85583
1.71681 0.852584
1.71916 0.84869
1.7215 0.846078
1.72385 0.851291
1.72619 0.853077
1.72854 0.853223
1.73088 0.853071
1.73323 0.853721
1.73557 0.855839
1.73792 0.854843
1.74027 0.852187
1.74261 0.848574
1.74496 0.84449
1.7473 0.849138
1.74965 0.849008
1.75199 0.849602
1.75434 0.852291
1.75668 0.855327
1.75903 0.851591
1.76137 0.85292
1.76372 0.853304
1.76606 0.851599
1.76841 0.850011
1.77075 0.846299
1.7731 0.845641
1.77545 0.848371
1.77779 0.850847
1.78014 0.846941
1.78248 0.8482
1.78483 0.851036
1.78717 0.853318
1.78952 0.85452
1.79186 0.85521
1.79421 0.854663
1.79655 0.855454
1.7989 0.853607
1.80124 0.850857
1.80359 0.85259
1.80594 0.850449
1.80828 0.852174
1.81063 0.852516
1.81297 0.851672
1.81532 0.853361
1.81766 0.853352
1.82001 0.850648
1.82235 0.85002
1.8247 0.853247
1.82704 0.859684
1.82939 0.858649
1.83173 0.856489
1.83408 0.854809
1.83643 0.854754
1.83877 0.857151
1.84112 0.862323
1.84346 0.862909
1.84581 0.859475
1.84815 0.857355
1.8505 0.864052
1.85284 0.858365
1.85519 0.858075
1.85753 0.861084
1.85988 0.864093
1.86222 0.862995
1.86457 0.857184
1.86692 0.854393
1.86926 0.856797
1.87161 0.861847
1.87395 0.864247
1.8763 0.867644
1.87864 0.868469
1.88099 0.86467
1.88333 0.861024
1.88568 0.865596
1.88802 0.865745
1.89037 0.869055
1.89271 0.870362
1.89506 0.870269
1.8974 0.872084
1.89975 0.86617
1.9021 0.866699
1.90444 0.867032
1.90679 0.86731
1.90913 0.871014
1.91148 0.87459
1.91382 0.874553
1.91617 0.873266
1.91851 0.871623
1.92086 0.870093
1.9232 0.873559
1.92555 0.873042
1.92789 0.876792
1.93024 0.882656
1.93259 0.883784
1.93493 0.885738
1.93728 0.876865
1.93962 0.875547
1.94197 0.880083
1.94431 0.879829
1.94666 0.881211
1.949 0.883027
1.95135 0.882938
1.95369 0.881196
1.95604 0.879505
1.95838 0.881246
1.96073 0.885593
1.96308 0.887968
1.96542 0.887198
1.96777 0.884181
1.97011 0.885069
1.97246 0.883542
1.9748 0.885379
1.97715 0.8877
1.97949 0.88451
1.98184 0.877193
1.98418 0.881347
1.98653 0.886641
1.98887 0.887024
1.99122 0.879736
1.99357 0.878192
1.99591 0.880315
1.99826 0.88017
2.0006 0.880721
2.00295 0.886346
2.00529 0.883162
2.00764 0.889101
2.00998 0.894108
2.01233 0.895452
2.01467 0.893666
2.01702 0.894358
2.01936 0.892324
2.02171 0.890602
2.02405 0.888471
2.0264 0.885175
2.02875 0.889243
2.03109 0.893378
2.03344 0.894243
2.03578 0.894795
2.03813 0.89801
2.04047 0.89237
2.04282 0.890613
2.04516 0.894116
2.04751 0.899481
2.04985 0.90242
2.0522 0.903134
2.05454 0.903707
2.05689 0.901581
2.05924 0.899633
2.06158 0.900827
2.06393 0.899698
2.06627 0.901075
2.06862 0.901978
2.07096 0.902431
2.07331 0.903408
2.07565 0.90702
2.078 0.904372
2.08034 0.90574
2.08269 0.910712
2.08503 0.91572
2.08738 0.914309
2.08973 0.912246
2.09207 0.912615
2.09442 0.915098
2.09676 0.918562
2.09911 0.921936
2.10145 0.916017
2.1038 0.918236
2.10614 0.925669
2.10849 0.931401
2.11083 0.928727
2.11318 0.931961
2.11552 0.937909
2.11787 0.941271
2.12022 0.939232
2.12256 0.939178
2.12491 0.936519
2.12725 0.934968
2.1296 0.934236
2.13194 0.934237
2.13429 0.937917
2.13663 0.936079
2.13898 0.936768
2.14132 0.937599
2.14367 0.935226
2.14601 0.927473
2.14836 0.927468
2.1507 0.932911
2.15305 0.937742
2.1554 0.937687
2.15774 0.934338
2.16009 0.935064
2.16243 0.937909
2.16478 0.938578
2.16712 0.935541
2.16947 0.934544
2.17181 0.935864
2.17416 0.941637
2.1765 0.944506
2.17885 0.941233
2.18119 0.939455
2.18354 0.944245
2.18589 0.946878
2.18823 0.946844
2.19058 0.946331
2.19292 0.951715
2.19527 0.949308
2.19761 0.949373
2.19996 0.952229
2.2023 0.956057
2.20465 0.956359
2.20699 0.960416
2.20934 0.959764
2.21168 0.95974
2.21403 0.962403
2.21638 0.963382
2.21872 0.96619
2.22107 0.967417
2.22341 0.966262
2.22576 0.963603
2.2281 0.962572
2.23045 0.969079
2.23279 0.96965
2.23514 0.967025
2.23748 0.966142
2.23983 0.974246
2.24217 0.978708
2.24452 0.977882
2.24687 0.977539
2.24921 0.979475
2.25156 0.980767
2.2539 0.981405
2.25625 0.97905
2.25859 0.975588
2.26094 0.974404
2.26328 0.980252
2.26563 0.978692
2.26797 0.978796
2.27032 0.979215
2.27266 0.97834
2.27501 0.974527
2.27735 0.978488
2.2797 0.979443
2.28205 0.976661
2.28439 0.970981
2.28674 0.964859
2.28908 0.97101
2.29143 0.975015
2.29377 0.975789
2.29612 0.973154
2.29846 0.96809
2.30081 0.971799
2.30315 0.975299
2.3055 0.975656
2.30784 0.975001
2.31019 0.978116
2.31254 0.980258
2.31488 0.981209
2.31723 0.981303
2.31957 0.981483
2.32192 0.98281
2.32426 0.982994
2.32661 0.98348
2.32895 0.987652
2.3313 0.993449
2.33364 0.995858
2.33599 0.98641
2.33833 0.988652
2.34068 0.990206
2.34303 0.987522
2.34537 0.982241
2.34772 0.990879
2.35006 0.990915
2.35241 0.99393
2.35475 0.996151
2.3571 0.991268
2.35944 0.992005
2.36179 0.993117
2.36413 0.989349
2.36648 0.985908
2.36882 0.989302
2.37117 0.995519
2.37352 0.995078
2.37586 0.993487
2.37821 0.993989
2.38055 0.998377
2.3829 1.00427
2.38524 1.01222
2.38759 1.00991
2.38993 1.00705
2.39228 1.01381
2.39462 1.02355
2.39697 1.02088
2.39931 1.01844
2.40166 1.0208
2.404 1.02762
2.40635 1.02654
2.4087 1.02268
2.41104 1.02165
2.41339 1.02281
2.41573 1.02417
2.41808 1.02248
2.42042 1.02364
2.42277 1.02215
2.42511 1.02161
2.42746 1.02415
2.4298 1.02605
2.43215 1.02263
2.43449 1.02398
2.43684 1.02747
2.43919 1.02954
2.44153 1.02686
2.44388 1.03226
2.44622 1.03696
2.44857 1.03718
2.45091 1.0349
2.45326 1.04147
2.4556 1.04682
2.45795 1.05097
2.46029 1.05247
2.46264 1.05375
2.46498 1.06292
2.46733 1.06189
2.46968 1.06568
2.47202 1.06324
2.47437 1.05487
2.47671 1.05532
2.47906 1.05483
2.4814 1.05628
2.48375 1.06003
2.48609 1.06678
2.48844 1.07749
2.49078 1.07257
2.49313 1.07251
2.49547 1.07613
2.49782 1.08108
2.50017 1.08418
2.50251 1.08915
2.50486 1.09085
2.5072 1.09148
2.50955 1.09272
2.51189 1.0956
2.51424 1.09441
2.51658 1.10312
2.51893 1.11079
2.52127 1.11352
2.52362 1.11194
2.52596 1.11374
2.52831 1.12137
2.53066 1.12775
2.533 1.13166
2.53535 1.1338
2.53769 1.12522
2.54004 1.13683
2.54238 1.14121
2.54473 1.14179
2.54707 1.14991
2.54942 1.14609
2.55176 1.14287
2.55411 1.14661
2.55645 1.15257
2.5588 1.15399
2.56114 1.15367
2.56349 1.1564
2.56584 1.16151
2.56818 1.16328
2.57053 1.15775
2.57287 1.15468
2.57522 1.15516
2.57756 1.1557
2.57991 1.15584
2.58225 1.15566
2.5846 1.15498
2.58694 1.15675
2.58929 1.15879
2.59163 1.15951
2.59398 1.15873
2.59633 1.16007
2.59867 1.16022
2.60102 1.15932
2.60336 1.15722
2.60571 1.15489
2.60805 1.15585
2.6104 1.15387
2.61274 1.15637
2.61509 1.15888
2.61743 1.15791
2.61978 1.15335
2.62212 1.15548
2.62447 1.15819
2.62682 1.15986
2.62916 1.16012
2.63151 1.16004
2.63385 1.15077
2.6362 1.14582
2.63854 1.14154
2.64089 1.1389
2.64323 1.14496
2.64558 1.13801
2.64792 1.13948
2.65027 1.14104
2.65261 1.13856
2.65496 1.13244
2.65731 1.13621
2.65965 1.12588
2.662 1.11245
2.66434 1.10391
2.66669 1.10505
2.66903 1.09918
2.67138 1.09385
2.67372 1.08689
2.67607 1.08216
2.67841 1.08583
2.68076 1.08462
2.6831 1.0821
2.68545 1.07673
2.68779 1.07068
2.69014 1.06756
2.69249 1.06781
2.69483 1.07128
2.69718 1.07326
2.69952 1.07657
2.70187 1.0841
2.70421 1.07991
2.70656 1.07605
2.7089 1.07831
2.71125 1.08217
2.71359 1.08198
2.71594 1.08177
2.71828 1.08336
2.72063 1.08467
2.72298 1.0879
2.72532 1.09415
2.72767 1.09691
2.73001 1.09403
2.73236 1.09257
2.7347 1.09393
2.73705 1.09742
2.73939 1.09899
2.74174 1.09916
2.74408 1.09781
2.74643 1.09814
2.74877 1.1001
2.75112 1.0955
2.75347 1.09312
2.75581 1.08781
2.75816 1.08733
2.7605 1.09174
2.76285 1.08623
2.76519 1.07907
2.76754 1.07453
2.76988 1.07142
2.77223 1.06735
2.77457 1.0587
2.77692 1.04852
2.77926 1.03908
2.78161 1.0361
2.78396 1.03765
2.7863 1.03429
2.78865 1.03202
2.79099 1.02755
2.79334 1.0204
2.79568 1.01332
2.79803 1.01103
2.80037 1.00428
2.80272 1.00386
2.80506 0.99939
2.80741 0.992467
2.80975 0.991118
2.8121 0.994507
2.81444 0.981179
2.81679 0.97555
2.81914 0.97578
2.82148 0.970505
2.82383 0.967488
2.82617 0.962592
2.82852 0.959406
2.83086 0.954423
2.83321 0.94446
2.83555 0.941956
2.8379 0.93115
2.84024 0.931265
2.84259 0.931061
2.84493 0.919527
2.84728 0.917868
2.84963 0.911022
2.85197 0.913357
2.85432 0.912748
2.85666 0.901792
2.85901 0.901431
2.86135 0.903284
2.8637 0.90595
2.86604 0.905919
2.86839 0.901938
2.87073 0.898169
2.87308 0.891544
2.87542 0.894134
2.87777 0.893995
2.88012 0.888021
2.88246 0.890684
2.88481 0.886286
2.88715 0.889766
2.8895 0.889464
2.89184 0.882098
2.89419 0.875828
2.89653 0.877542
2.89888 0.871939
2.90122 0.873538
2.90357 0.88005
2.90591 0.874303
2.90826 0.870534
2.91061 0.871328
2.91295 0.870825
2.9153 0.867856
2.91764 0.86445
2.91999 0.862344
2.92233 0.869885
2.92468 0.869619
2.92702 0.862303
2.92937 0.857699
2.93171 0.864399
2.93406 0.869664
2.9364 0.868098
2.93875 0.862384
2.94109 0.858444
2.94344 0.863355
2.94579 0.865538
2.94813 0.864348
2.95048 0.86059
2.95282 0.85678
2.95517 0.860837
2.95751 0.85963
2.95986 0.854488
2.9622 0.851679
2.96455 0.854618
2.96689 0.855852
2.96924 0.859353
2.97158 0.863359
2.97393 0.863173
2.97628 0.861237
2.97862 0.875957
2.98097 0.872726
2.98331 0.864156
2.98566 0.863528
2.988 0.87193
2.99035 0.872123
2.99269 0.873049
2.99504 0.873488
2.99738 0.878167
2.99973 0.885487
3.00207 0.88709
3.00442 0.895855
3.00677 0.897448
3.00911 0.901846
3.01146 0.908345
3.0138 0.908526
3.01615 0.910556
3.01849 0.905746
3.02084 0.906302
3.02318 0.914811
3.02553 0.927157
3.02787 0.925727
3.03022 0.931452
3.03256 0.938709
3.03491 0.945054
3.03726 0.949703
3.0396 0.955235
3.04195 0.964736
3.04429 0.973864
3.04664 0.980955
3.04898 0.986339
3.05133 0.995949
3.05367 1.00151
3.05602 1.00349
3.05836 1.007
3.06071 1.0147
3.06305 1.01963
3.0654 1.03723
3.06774 1.05136
3.07009 1.06236
3.07244 1.07119
3.07478 1.07627
3.07713 1.08811
3.07947 1.10178
3.08182 1.11009
3.08416 1.11312
3.08651 1.12139
3.08885 1.13106
3.0912 1.14481
3.09354 1.15793
3.09589 1.16773
3.09823 1.17394
3.10058 1.18639
3.10293 1.19375
3.10527 1.20499
3.10762 1.21886
3.10996 1.22782
3.11231 1.2373
3.11465 1.25208
3.117 1.26626
3.11934 1.27757
3.12169 1.2858
3.12403 1.29316
3.12638 1.31012
3.12872 1.32133
3.13107 1.32683
3.13342 1.33182
3.13576 1.34208
3.13811 1.36052
3.14045 1.37512
3.1428 1.3788
3.14514 1.3766
3.14749 1.41101
3.14983 1.4222
3.15218 1.41808
3.15452 1.41428
3.15687 1.42043
3.15921 1.43033
3.16156 1.4405
3.16391 1.43992
3.16625 1.43565
3.1686 1.43592
