[DEFAULT]

version = diffpy.pdfgetx-2.2.1

# input and output specifications
dataformat = QA
inputfile = bf8_acc_r01.xyd
backgroundfiles = emptycap.xyd
outputtype = sq

# PDF calculation setup
mode = xray
composition = AlOOH
bgscales = 0.5
rpoly = 1.13
qmaxinst = 20.396
qmin = 0.406
qmax = 15
rmin = 0
rmax = 300
rstep = 0.01

# End of config --------------------------------------------------------------

#### start data
#S 1
#L Q(Å$^{-1}$)  S(a.u.)
0.408095 1.46186
0.41044 1.45703
0.412785 1.45162
0.415131 1.44601
0.417476 1.44118
0.419821 1.43388
0.422167 1.426
0.424512 1.42049
0.426857 1.41798
0.429203 1.41585
0.431548 1.41267
0.433894 1.40591
0.436239 1.39944
0.438584 1.39497
0.44093 1.39028
0.443275 1.38686
0.44562 1.38472
0.447966 1.38147
0.450311 1.37609
0.452657 1.37042
0.455002 1.36459
0.457347 1.36201
0.459693 1.35944
0.462038 1.35487
0.464383 1.35038
0.466729 1.34735
0.469074 1.34578
0.47142 1.34394
0.473765 1.33996
0.47611 1.33172
0.478456 1.33362
0.480801 1.33208
0.483146 1.32739
0.485492 1.32161
0.487837 1.31649
0.490182 1.31484
0.492528 1.31292
0.494873 1.3104
0.497219 1.30733
0.499564 1.3031
0.501909 1.30082
0.504255 1.29881
0.5066 1.29692
0.508945 1.29513
0.511291 1.29285
0.513636 1.2897
0.515982 1.28763
0.518327 1.28638
0.520672 1.28505
0.523018 1.28238
0.525363 1.27526
0.527708 1.26962
0.530054 1.26708
0.532399 1.26709
0.534745 1.26228
0.53709 1.26063
0.539435 1.26034
0.541781 1.25945
0.544126 1.25636
0.546471 1.2537
0.548817 1.24837
0.551162 1.24409
0.553507 1.24245
0.555853 1.24356
0.558198 1.24004
0.560544 1.23882
0.562889 1.23867
0.565234 1.23836
0.56758 1.23666
0.569925 1.23345
0.57227 1.23239
0.574616 1.23094
0.576961 1.22766
0.579307 1.22201
0.581652 1.22089
0.583997 1.21925
0.586343 1.21773
0.588688 1.21595
0.591033 1.21301
0.593379 1.21355
0.595724 1.21086
0.59807 1.20789
0.600415 1.20577
0.60276 1.2043
0.605106 1.20217
0.607451 1.20054
0.609796 1.19889
0.612142 1.19851
0.614487 1.20234
0.616832 1.19444
0.619178 1.19074
0.621523 1.19047
0.623869 1.1915
0.626214 1.19017
0.628559 1.18571
0.630905 1.18514
0.63325 1.18365
0.635595 1.18019
0.637941 1.17861
0.640286 1.17635
0.642632 1.17534
0.644977 1.17464
0.647322 1.17368
0.649668 1.17253
0.652013 1.16994
0.654358 1.16925
0.656704 1.16908
0.659049 1.16731
0.661395 1.16049
0.66374 1.15893
0.666085 1.16048
0.668431 1.16013
0.670776 1.15701
0.673121 1.15904
0.675467 1.15427
0.677812 1.15222
0.680158 1.15212
0.682503 1.15245
0.684848 1.15181
0.687194 1.14807
0.689539 1.14609
0.691884 1.14508
0.69423 1.14378
0.696575 1.14121
0.69892 1.14202
0.701266 1.13933
0.703611 1.13604
0.705957 1.13479
0.708302 1.13343
0.710647 1.13321
0.712993 1.13261
0.715338 1.13274
0.717683 1.13393
0.720029 1.13188
0.722374 1.12941
0.72472 1.12826
0.727065 1.1282
0.72941 1.12786
0.731756 1.12221
0.734101 1.11893
0.736446 1.11982
0.738792 1.12186
0.741137 1.12133
0.743483 1.11663
0.745828 1.11345
0.748173 1.1127
0.750519 1.11227
0.752864 1.1101
0.755209 1.11001
0.757555 1.11195
0.7599 1.11091
0.762245 1.1074
0.764591 1.10383
0.766936 1.10386
0.769282 1.10479
0.771627 1.10423
0.773972 1.10242
0.776318 1.10063
0.778663 1.10084
0.781008 1.09904
0.783354 1.09711
0.785699 1.09605
0.788045 1.09619
0.79039 1.09301
0.792735 1.09189
0.795081 1.09175
0.797426 1.09133
0.799771 1.08937
0.802117 1.08675
0.804462 1.08574
0.806808 1.0848
0.809153 1.08344
0.811498 1.08181
0.813844 1.08241
0.816189 1.08131
0.818534 1.07946
0.82088 1.0784
0.823225 1.0799
0.82557 1.07937
0.827916 1.07813
0.830261 1.07644
0.832607 1.07508
0.834952 1.07516
0.837297 1.07484
0.839643 1.07131
0.841988 1.06962
0.844333 1.07055
0.846679 1.07138
0.849024 1.07065
0.85137 1.06769
0.853715 1.06566
0.85606 1.0648
0.858406 1.06258
0.860751 1.06477
0.863096 1.06318
0.865442 1.06104
0.867787 1.0597
0.870133 1.05838
0.872478 1.05723
0.874823 1.05774
0.877169 1.05664
0.879514 1.05335
0.881859 1.05093
0.884205 1.05192
0.88655 1.05194
0.888896 1.05086
0.891241 1.05011
0.893586 1.05349
0.895932 1.0502
0.898277 1.04845
0.900622 1.04649
0.902968 1.04402
0.905313 1.04393
0.907658 1.04373
0.910004 1.0425
0.912349 1.04101
0.914695 1.03982
0.91704 1.03894
0.919385 1.03832
0.921731 1.03812
0.924076 1.03834
0.926421 1.03836
0.928767 1.03593
0.931112 1.0339
0.933458 1.03278
0.935803 1.03186
0.938148 1.03094
0.940494 1.03158
0.942839 1.03039
0.945184 1.03123
0.94753 1.0313
0.949875 1.02875
0.952221 1.02627
0.954566 1.02722
0.956911 1.02754
0.959257 1.0285
0.961602 1.03049
0.963947 1.0286
0.966293 1.02527
0.968638 1.02392
0.970983 1.0247
0.973329 1.02628
0.975674 1.02358
0.97802 1.01899
0.980365 1.0179
0.98271 1.01831
0.985056 1.01763
0.987401 1.01696
0.989746 1.01619
0.992092 1.01408
0.994437 1.01374
0.996783 1.01681
0.999128 1.01297
1.00147 1.01126
1.00382 1.01108
1.00616 1.01133
1.00851 1.01091
1.01085 1.00937
1.0132 1.00869
1.01555 1.00844
1.01789 1.00843
1.02024 1.00857
1.02258 1.00955
1.02493 1.00833
1.02727 1.00712
1.02962 1.00538
1.03196 1.00213
1.03431 0.999186
1.03665 1.00302
1.039 1.00439
1.04134 1.0033
1.04369 1.00262
1.04604 1.00132
1.04838 0.999189
1.05073 0.99876
1.05307 0.999603
1.05542 0.999823
1.05776 0.994867
1.06011 0.99196
1.06245 0.991603
1.0648 0.993529
1.06714 0.99641
1.06949 0.991356
1.07183 0.990521
1.07418 0.990479
1.07653 0.991304
1.07887 0.994188
1.08122 0.992203
1.08356 0.993284
1.08591 0.991972
1.08825 0.98951
1.0906 0.990443
1.09294 0.99014
1.09529 0.987875
1.09763 0.986703
1.09998 0.985882
1.10232 0.982731
1.10467 0.985689
1.10701 0.986801
1.10936 0.98698
1.11171 0.986117
1.11405 0.983508
1.1164 0.980725
1.11874 0.97742
1.12109 0.975357
1.12343 0.975064
1.12578 0.976082
1.12812 0.976389
1.13047 0.976483
1.13281 0.976012
1.13516 0.97587
1.1375 0.977987
1.13985 0.976889
1.1422 0.977603
1.14454 0.975837
1.14689 0.972507
1.14923 0.973476
1.15158 0.972383
1.15392 0.969855
1.15627 0.968758
1.15861 0.968647
1.16096 0.965549
1.1633 0.964913
1.16565 0.965569
1.16799 0.966681
1.17034 0.967616
1.17269 0.96795
1.17503 0.967902
1.17738 0.967208
1.17972 0.967356
1.18207 0.967709
1.18441 0.964781
1.18676 0.96239
1.1891 0.962086
1.19145 0.963127
1.19379 0.964338
1.19614 0.963942
1.19848 0.961662
1.20083 0.962713
1.20318 0.962748
1.20552 0.960222
1.20787 0.95836
1.21021 0.958714
1.21256 0.958778
1.2149 0.959339
1.21725 0.960925
1.21959 0.963456
1.22194 0.963672
1.22428 0.96136
1.22663 0.960284
1.22897 0.961494
1.23132 0.960623
1.23366 0.964029
1.23601 0.962403
1.23836 0.959953
1.2407 0.958941
1.24305 0.955818
1.24539 0.956161
1.24774 0.956642
1.25008 0.956701
1.25243 0.955845
1.25477 0.953099
1.25712 0.9551
1.25946 0.955361
1.26181 0.955756
1.26415 0.956906
1.2665 0.954445
1.26885 0.951359
1.27119 0.951582
1.27354 0.952969
1.27588 0.953611
1.27823 0.953875
1.28057 0.955134
1.28292 0.956474
1.28526 0.957105
1.28761 0.95621
1.28995 0.952589
1.2923 0.948845
1.29464 0.947936
1.29699 0.947654
1.29934 0.946467
1.30168 0.947192
1.30403 0.948279
1.30637 0.947999
1.30872 0.947967
1.31106 0.949338
1.31341 0.950091
1.31575 0.951345
1.3181 0.947618
1.32044 0.943831
1.32279 0.944459
1.32513 0.946379
1.32748 0.947611
1.32983 0.94852
1.33217 0.948973
1.33452 0.948793
1.33686 0.947833
1.33921 0.948089
1.34155 0.946442
1.3439 0.945972
1.34624 0.948283
1.34859 0.943249
1.35093 0.943686
1.35328 0.94292
1.35562 0.942095
1.35797 0.942914
1.36032 0.942179
1.36266 0.943723
1.36501 0.942865
1.36735 0.940066
1.3697 0.937748
1.37204 0.94242
1.37439 0.945435
1.37673 0.940325
1.37908 0.932248
1.38142 0.929033
1.38377 0.937031
1.38611 0.938844
1.38846 0.936999
1.3908 0.935488
1.39315 0.937007
1.3955 0.933236
1.39784 0.930876
1.40019 0.931182
1.40253 0.931546
1.40488 0.929357
1.40722 0.929501
1.40957 0.926579
1.41191 0.921747
1.41426 0.919756
1.4166 0.924637
1.41895 0.927731
1.42129 0.92952
1.42364 0.927612
1.42599 0.924731
1.42833 0.924484
1.43068 0.92385
1.43302 0.920237
1.43537 0.91713
1.43771 0.916335
1.44006 0.918364
1.4424 0.917826
1.44475 0.917638
1.44709 0.917215
1.44944 0.915976
1.45178 0.913631
1.45413 0.912352
1.45648 0.910531
1.45882 0.910587
1.46117 0.911135
1.46351 0.909998
1.46586 0.911901
1.4682 0.912377
1.47055 0.910393
1.47289 0.908526
1.47524 0.909742
1.47758 0.904796
1.47993 0.906454
1.48227 0.905444
1.48462 0.901905
1.48697 0.899777
1.48931 0.90106
1.49166 0.897895
1.494 0.897706
1.49635 0.900709
1.49869 0.90406
1.50104 0.907186
1.50338 0.903599
1.50573 0.899595
1.50807 0.89778
1.51042 0.898589
1.51276 0.894872
1.51511 0.893795
1.51745 0.892856
1.5198 0.892217
1.52215 0.892951
1.52449 0.891349
1.52684 0.892092
1.52918 0.891739
1.53153 0.889154
1.53387 0.884877
1.53622 0.88717
1.53856 0.88803
1.54091 0.889307
1.54325 0.889398
1.5456 0.885576
1.54794 0.886467
1.55029 0.886937
1.55264 0.886613
1.55498 0.88586
1.55733 0.885409
1.55967 0.884741
1.56202 0.882189
1.56436 0.881247
1.56671 0.882779
1.56905 0.885879
1.5714 0.884708
1.57374 0.881098
1.57609 0.878991
1.57843 0.878687
1.58078 0.878731
1.58313 0.88548
1.58547 0.886131
1.58782 0.882382
1.59016 0.876971
1.59251 0.873543
1.59485 0.876059
1.5972 0.878786
1.59954 0.880068
1.60189 0.87899
1.60423 0.87543
1.60658 0.876257
1.60892 0.876029
1.61127 0.875093
1.61362 0.874933
1.61596 0.87745
1.61831 0.875732
1.62065 0.872114
1.623 0.872071
1.62534 0.873959
1.62769 0.871906
1.63003 0.873377
1.63238 0.873624
1.63472 0.87566
1.63707 0.878124
1.63941 0.876779
1.64176 0.870209
1.6441 0.870696
1.64645 0.870749
1.6488 0.868959
1.65114 0.867909
1.65349 0.868656
1.65583 0.868994
1.65818 0.869726
1.66052 0.870933
1.66287 0.872248
1.66521 0.874835
1.66756 0.873686
1.6699 0.870751
1.67225 0.868769
1.67459 0.870918
1.67694 0.872742
1.67929 0.871012
1.68163 0.868724
1.68398 0.866887
1.68632 0.865204
1.68867 0.864817
1.69101 0.867328
1.69336 0.869619
1.6957 0.870398
1.69805 0.8697
1.70039 0.8694
1.70274 0.872257
1.70508 0.872294
1.70743 0.868755
1.70978 0.864689
1.71212 0.863174
1.71447 0.864777
1.71681 0.86576
1.71916 0.864539
1.7215 0.861284
1.72385 0.864016
1.72619 0.867685
1.72854 0.870992
1.73088 0.871948
1.73323 0.868308
1.73557 0.867447
1.73792 0.864615
1.74027 0.862386
1.74261 0.861558
1.74496 0.861707
1.7473 0.864312
1.74965 0.863803
1.75199 0.863726
1.75434 0.865722
1.75668 0.869733
1.75903 0.863492
1.76137 0.861544
1.76372 0.861842
1.76606 0.863481
1.76841 0.866009
1.77075 0.860283
1.7731 0.861635
1.77545 0.864614
1.77779 0.867091
1.78014 0.869032
1.78248 0.864948
1.78483 0.863874
1.78717 0.864991
1.78952 0.865995
1.79186 0.863613
1.79421 0.861022
1.79655 0.867184
1.7989 0.868794
1.80124 0.864482
1.80359 0.861164
1.80594 0.86145
1.80828 0.859289
1.81063 0.859183
1.81297 0.861051
1.81532 0.861721
1.81766 0.861683
1.82001 0.865708
1.82235 0.869291
1.8247 0.871146
1.82704 0.87198
1.82939 0.868098
1.83173 0.866133
1.83408 0.865667
1.83643 0.865673
1.83877 0.864765
1.84112 0.864651
1.84346 0.865479
1.84581 0.864386
1.84815 0.862129
1.8505 0.861611
1.85284 0.858916
1.85519 0.86014
1.85753 0.864426
1.85988 0.867873
1.86222 0.864913
1.86457 0.860367
1.86692 0.859466
1.86926 0.861664
1.87161 0.865914
1.87395 0.870455
1.8763 0.86825
1.87864 0.867622
1.88099 0.866816
1.88333 0.866629
1.88568 0.868969
1.88802 0.867445
1.89037 0.868778
1.89271 0.869334
1.89506 0.869765
1.8974 0.872887
1.89975 0.875281
1.9021 0.875085
1.90444 0.87398
1.90679 0.873684
1.90913 0.875557
1.91148 0.873264
1.91382 0.871445
1.91617 0.870309
1.91851 0.870279
1.92086 0.871821
1.9232 0.87475
1.92555 0.875124
1.92789 0.870709
1.93024 0.868474
1.93259 0.878188
1.93493 0.877218
1.93728 0.876292
1.93962 0.875455
1.94197 0.874077
1.94431 0.871661
1.94666 0.874083
1.949 0.878471
1.95135 0.880931
1.95369 0.879863
1.95604 0.875398
1.95838 0.874739
1.96073 0.875335
1.96308 0.877577
1.96542 0.880827
1.96777 0.883954
1.97011 0.886495
1.97246 0.88846
1.9748 0.889808
1.97715 0.889322
1.97949 0.88577
1.98184 0.882609
1.98418 0.886344
1.98653 0.890457
1.98887 0.889781
1.99122 0.881914
1.99357 0.886448
1.99591 0.890552
1.99826 0.889974
2.0006 0.887885
2.00295 0.889286
2.00529 0.88841
2.00764 0.888312
2.00998 0.890778
2.01233 0.892811
2.01467 0.891298
2.01702 0.897093
2.01936 0.895656
2.02171 0.894886
2.02405 0.894723
2.0264 0.893382
2.02875 0.896196
2.03109 0.899421
2.03344 0.898162
2.03578 0.896624
2.03813 0.899778
2.04047 0.897068
2.04282 0.897426
2.04516 0.900725
2.04751 0.901867
2.04985 0.8974
2.0522 0.904017
2.05454 0.901274
2.05689 0.901856
2.05924 0.906281
2.06158 0.910685
2.06393 0.905341
2.06627 0.910498
2.06862 0.911963
2.07096 0.91219
2.07331 0.915607
2.07565 0.914634
2.078 0.910992
2.08034 0.904287
2.08269 0.901789
2.08503 0.908958
2.08738 0.91445
2.08973 0.912769
2.09207 0.911294
2.09442 0.91324
2.09676 0.919656
2.09911 0.926397
2.10145 0.923035
2.1038 0.920143
2.10614 0.918977
2.10849 0.919316
2.11083 0.922423
2.11318 0.925897
2.11552 0.927291
2.11787 0.929786
2.12022 0.935004
2.12256 0.935197
2.12491 0.928751
2.12725 0.924561
2.1296 0.924736
2.13194 0.929495
2.13429 0.937021
2.13663 0.937985
2.13898 0.937634
2.14132 0.939782
2.14367 0.943948
2.14601 0.937053
2.14836 0.932058
2.1507 0.934418
2.15305 0.93924
2.1554 0.942728
2.15774 0.947875
2.16009 0.942177
2.16243 0.939572
2.16478 0.941296
2.16712 0.94464
2.16947 0.940573
2.17181 0.950482
2.17416 0.956214
2.1765 0.958219
2.17885 0.957876
2.18119 0.954393
2.18354 0.955134
2.18589 0.957674
2.18823 0.95839
2.19058 0.957599
2.19292 0.963838
2.19527 0.962315
2.19761 0.962264
2.19996 0.962895
2.2023 0.961963
2.20465 0.955584
2.20699 0.963111
2.20934 0.966255
2.21168 0.967524
2.21403 0.969365
2.21638 0.972356
2.21872 0.975624
2.22107 0.977857
2.22341 0.976909
2.22576 0.974554
2.2281 0.978322
2.23045 0.983794
2.23279 0.981108
2.23514 0.975234
2.23748 0.971322
2.23983 0.974257
2.24217 0.98097
2.24452 0.978415
2.24687 0.976419
2.24921 0.97908
2.25156 0.983466
2.2539 0.982443
2.25625 0.982057
2.25859 0.981276
2.26094 0.980215
2.26328 0.980197
2.26563 0.97872
2.26797 0.97946
2.27032 0.982763
2.27266 0.986276
2.27501 0.98534
2.27735 0.984041
2.2797 0.983514
2.28205 0.983573
2.28439 0.983483
2.28674 0.982244
2.28908 0.985298
2.29143 0.988635
2.29377 0.984271
2.29612 0.974113
2.29846 0.967278
2.30081 0.975315
2.30315 0.98255
2.3055 0.983452
2.30784 0.9806
2.31019 0.981381
2.31254 0.98694
2.31488 0.983513
2.31723 0.978927
2.31957 0.975333
2.32192 0.97272
2.32426 0.980975
2.32661 0.979533
2.32895 0.981703
2.3313 0.985311
2.33364 0.982366
2.33599 0.979233
2.33833 0.98002
2.34068 0.986333
2.34303 0.992612
2.34537 0.991818
2.34772 0.99033
2.35006 0.987543
2.35241 0.989418
2.35475 0.99405
2.3571 0.996903
2.35944 0.99492
2.36179 0.991245
2.36413 0.991094
2.36648 0.992981
2.36882 0.993474
2.37117 0.98972
2.37352 0.988098
2.37586 0.992306
2.37821 0.999656
2.38055 1.00507
2.3829 1.00009
2.38524 1.00034
2.38759 0.998363
2.38993 0.996853
2.39228 0.998468
2.39462 0.997275
2.39697 0.99841
2.39931 1.00172
2.40166 1.00483
2.404 1.0062
2.40635 1.00855
2.4087 1.01582
2.41104 1.01127
2.41339 1.00696
2.41573 1.01183
2.41808 1.01432
2.42042 1.01917
2.42277 1.02297
2.42511 1.02464
2.42746 1.02328
2.4298 1.01747
2.43215 1.02097
2.43449 1.02785
2.43684 1.03215
2.43919 1.03104
2.44153 1.02785
2.44388 1.03316
2.44622 1.03382
2.44857 1.03298
2.45091 1.03418
2.45326 1.03983
2.4556 1.04296
2.45795 1.04966
2.46029 1.054
2.46264 1.05419
2.46498 1.05512
2.46733 1.05876
2.46968 1.05633
2.47202 1.05828
2.47437 1.06566
2.47671 1.06768
2.47906 1.06854
2.4814 1.07174
2.48375 1.07777
2.48609 1.08677
2.48844 1.09838
2.49078 1.09069
2.49313 1.09163
2.49547 1.09201
2.49782 1.09319
2.50017 1.10436
2.50251 1.09541
2.50486 1.1004
2.5072 1.1047
2.50955 1.10674
2.51189 1.11326
2.51424 1.11283
2.51658 1.11655
2.51893 1.11939
2.52127 1.11978
2.52362 1.11874
2.52596 1.12561
2.52831 1.13073
2.53066 1.12741
2.533 1.12569
2.53535 1.13998
2.53769 1.14586
2.54004 1.14839
2.54238 1.14784
2.54473 1.147
2.54707 1.14976
2.54942 1.1602
2.55176 1.15665
2.55411 1.15864
2.55645 1.16234
2.5588 1.15958
2.56114 1.15968
2.56349 1.16097
2.56584 1.16324
2.56818 1.16273
2.57053 1.1583
2.57287 1.16535
2.57522 1.16752
2.57756 1.16974
2.57991 1.17309
2.58225 1.17635
2.5846 1.17258
2.58694 1.17491
2.58929 1.17473
2.59163 1.17384
2.59398 1.17287
2.59633 1.16388
2.59867 1.16286
2.60102 1.1689
2.60336 1.17561
2.60571 1.17639
2.60805 1.16514
2.6104 1.15703
2.61274 1.1582
2.61509 1.15835
2.61743 1.15355
2.61978 1.15421
2.62212 1.1524
2.62447 1.14922
2.62682 1.15051
2.62916 1.15623
2.63151 1.15727
2.63385 1.14743
2.6362 1.13563
2.63854 1.12958
2.64089 1.13045
2.64323 1.13162
2.64558 1.12749
2.64792 1.12739
2.65027 1.126
2.65261 1.12246
2.65496 1.12032
2.65731 1.12684
2.65965 1.11921
2.662 1.10903
2.66434 1.10478
2.66669 1.11172
2.66903 1.11536
2.67138 1.10708
2.67372 1.10076
2.67607 1.09874
2.67841 1.09671
2.68076 1.09501
2.6831 1.09258
2.68545 1.08691
2.68779 1.08287
2.69014 1.08709
2.69249 1.08844
2.69483 1.08816
2.69718 1.09053
2.69952 1.09472
2.70187 1.09651
2.70421 1.081
2.70656 1.08404
2.7089 1.09234
2.71125 1.09816
2.71359 1.09687
2.71594 1.09243
2.71828 1.0916
2.72063 1.09458
2.72298 1.09786
2.72532 1.09933
2.72767 1.10591
2.73001 1.09904
2.73236 1.09267
2.7347 1.09258
2.73705 1.0995
2.73939 1.10364
2.74174 1.10493
2.74408 1.10347
2.74643 1.10082
2.74877 1.09699
2.75112 1.08776
2.75347 1.09099
2.75581 1.08783
2.75816 1.08519
2.7605 1.08552
2.76285 1.08037
2.76519 1.06314
2.76754 1.0565
2.76988 1.05119
2.77223 1.0438
2.77457 1.04037
2.77692 1.03362
2.77926 1.01943
2.78161 1.00984
2.78396 1.00664
2.7863 1.00113
2.78865 0.99963
2.79099 0.995706
2.79334 0.983461
2.79568 0.969368
2.79803 0.968255
2.80037 0.961969
2.80272 0.957517
2.80506 0.95656
2.80741 0.955298
2.80975 0.948298
2.8121 0.952613
2.81444 0.94481
2.81679 0.936448
2.81914 0.931255
2.82148 0.929229
2.82383 0.92762
2.82617 0.921007
2.82852 0.914644
2.83086 0.911754
2.83321 0.913246
2.83555 0.910593
2.8379 0.907641
2.84024 0.904387
2.84259 0.900352
2.84493 0.895933
2.84728 0.895712
2.84963 0.897986
2.85197 0.893917
2.85432 0.888582
2.85666 0.885774
2.85901 0.877667
2.86135 0.87311
2.8637 0.873932
2.86604 0.876215
2.86839 0.874903
2.87073 0.863677
2.87308 0.866221
2.87542 0.868712
2.87777 0.869756
2.88012 0.867826
2.88246 0.859528
2.88481 0.868188
2.88715 0.868788
2.8895 0.861841
2.89184 0.853983
2.89419 0.857957
2.89653 0.858032
2.89888 0.853958
2.90122 0.85678
2.90357 0.863881
2.90591 0.860712
2.90826 0.861659
2.91061 0.858971
2.91295 0.856705
2.9153 0.856299
2.91764 0.856855
2.91999 0.848174
2.92233 0.848269
2.92468 0.849382
2.92702 0.850314
2.92937 0.85327
2.93171 0.863335
2.93406 0.857759
2.9364 0.853846
2.93875 0.854681
2.94109 0.858034
2.94344 0.860025
2.94579 0.853741
2.94813 0.850263
2.95048 0.849451
2.95282 0.849977
2.95517 0.857949
2.95751 0.853499
2.95986 0.846388
2.9622 0.846384
2.96455 0.85546
2.96689 0.852606
2.96924 0.850583
2.97158 0.854449
2.97393 0.853596
2.97628 0.847377
2.97862 0.860057
2.98097 0.865139
2.98331 0.865398
2.98566 0.86834
2.988 0.874207
2.99035 0.871794
2.99269 0.873452
2.99504 0.874672
2.99738 0.87453
2.99973 0.87434
3.00207 0.877649
3.00442 0.884224
3.00677 0.88726
3.00911 0.888885
3.01146 0.89065
3.0138 0.893659
3.01615 0.899873
3.01849 0.902509
3.02084 0.905719
3.02318 0.91196
3.02553 0.921743
3.02787 0.924718
3.03022 0.928129
3.03256 0.934947
3.03491 0.941222
3.03726 0.942803
3.0396 0.952805
3.04195 0.965814
3.04429 0.972037
3.04664 0.974654
3.04898 0.979996
3.05133 0.992619
3.05367 0.994196
3.05602 0.999156
3.05836 1.00774
3.06071 1.01742
3.06305 1.02499
3.0654 1.03999
3.06774 1.05245
3.07009 1.06058
3.07244 1.06644
3.07478 1.07806
3.07713 1.09046
3.07947 1.10207
3.08182 1.11141
3.08416 1.1192
3.08651 1.12921
3.08885 1.14061
3.0912 1.14862
3.09354 1.16114
3.09589 1.17923
3.09823 1.19686
3.10058 1.20438
3.10293 1.2132
3.10527 1.22414
3.10762 1.23647
3.10996 1.24848
3.11231 1.26028
3.11465 1.27542
3.117 1.2908
3.11934 1.30532
3.12169 1.31776
3.12403 1.31769
3.12638 1.32752
3.12872 1.34131
3.13107 1.35412
3.13342 1.3619
3.13576 1.36364
3.13811 1.38372
3.14045 1.40878
3.1428 1.4226
3.14514 1.42115
3.14749 1.44349
3.14983 1.44854
3.15218 1.4547
3.15452 1.46072
3.15687 1.46483
3.15921 1.46944
3.16156 1.47691
3.16391 1.47957
3.16625 1.48327
3.1686 1.48711
3.17094 1.47848
